1459703317.00
64.000000
-0.00
-0.00
-0.00
-0.00
-0.00
-0.00
-0.00
-0.00
-0.00
-0.00
0.00
0.01
0.01
-0.00
-0.03
-0.05
-0.05
0.00
0.13
0.36
0.66
1.01
1.37
1.72
2.06
2.40
2.79
3.24
3.80
4.42
5.06
5.66
6.20
6.68
7.15
7.68
8.31
9.14
10.09
11.04
11.88
12.56
13.14
13.76
14.65
15.96
17.91
20.32
22.90
25.38
27.58
29.57
31.68
34.32
37.81
42.54
48.15
54.10
59.83
64.97
69.58
74.14
79.34
85.71
93.76
103.00
112.62
121.73
129.77
136.75
143.30
150.75
157.77
166.64
177.95
191.79
206.97
220.57
228.25
225.36
208.53
176.87
132.76
80.05
23.07
-34.94
-92.44
-149.16
-205.23
-260.37
-313.74
-363.87
-409.83
-450.91
-486.50
-515.74
-537.23
-549.22
-549.96
-538.37
-514.20
-478.67
-433.88
-382.46
-327.02
-269.84
-212.61
-156.63
-102.92
-52.37
-5.96
35.43
71.18
101.03
125.14
144.01
158.34
168.79
175.98
180.28
182.00
181.40
178.79
174.51
168.98
162.55
155.53
148.11
140.43
132.59
124.68
116.84
109.17
101.72
94.47
87.35
80.29
73.25
66.32
59.69
53.55
48.02
43.08
38.54
34.09
29.52
24.73
19.90
15.36
11.49
8.48
6.25
4.43
2.51
0.08
-2.94
-6.27
-9.35
-11.66
-12.95
-13.39
-13.47
-13.79
-14.74
-16.45
-18.91
-21.98
-25.47
-28.71
-30.55
-29.43
-24.02
-14.08
-0.96
12.73
24.19
31.74
35.51
37.01
38.01
39.28
40.26
39.59
36.32
30.77
24.43
19.15
16.03
14.97
14.85
14.39
12.94
10.72
8.56
7.22
6.91
7.23
7.45
6.95
5.47
3.32
1.06
-0.72
-1.62
-1.63
-1.04
-0.36
-0.07
-0.40
-1.21
-2.05
-2.38
-1.81
-0.29
1.82
4.00
5.81
7.11
8.04
8.87
9.76
10.67
11.44
11.87
11.96
11.84
11.78
11.94
12.36
12.95
13.56
14.07
14.37
14.36
13.93
12.92
11.27
9.08
6.39
3.39
0.24
-2.99
-6.27
-9.54
-12.65
-15.31
-17.26
-18.32
-18.52
-18.07
-17.28
-16.43
-15.67
-15.03
-14.47
-13.91
-13.27
-12.48
-11.46
-10.18
-8.63
-6.85
-4.93
-3.03
-1.34
-0.09
0.59
0.67
0.22
-0.59
-1.57
-2.50
-3.26
-3.72
-3.86
-3.68
-3.26
-2.71
-2.17
-1.72
-1.43
-1.27
-1.21
-1.19
-1.21
-1.24
-1.27
-1.30
-1.36
-1.48
-1.69
-1.97
-2.24
-2.44
-2.52
-2.58
-2.77
-3.24
-4.04
-5.04
-6.00
-6.49
-6.19
-4.95
-2.84
-0.08
3.03
6.18
9.10
11.63
13.63
15.03
15.77
15.80
15.08
13.70
11.83
9.79
7.92
6.53
5.73
5.46
5.59
5.97
6.46
6.99
7.47
7.76
7.74
7.38
6.70
5.83
4.88
3.90
2.87
1.76
0.59
-0.56
-1.60
-2.57
-3.58
-4.82
-6.37
-8.12
-9.76
-10.85
-11.06
-10.25
-8.49
-6.06
-3.22
-0.19
2.89
5.92
8.74
11.11
12.78
13.49
13.11
11.67
9.34
6.41
3.21
0.04
-2.86
-5.34
-7.31
-8.79
-9.77
-10.28
-10.34
-10.05
-9.56
-9.08
-8.76
-8.70
-8.84
-9.04
-9.12
-9.00
-8.71
-8.35
-8.06
-7.91
-7.90
-8.04
-8.38
-9.07
-10.25
-11.91
-13.83
-15.52
-16.43
-16.06
-14.22
-11.01
-6.81
-2.08
2.72
7.28
11.33
14.70
17.21
18.72
19.21
18.78
17.69
16.22
14.64
13.13
11.80
10.67
9.69
8.79
7.94
7.11
6.39
5.91
5.79
6.02
6.44
6.70
6.39
5.18
2.95
-0.07
-3.37
-6.30
-8.30
-9.04
-8.51
-6.96
-4.74
-2.13
0.69
3.60
6.46
9.03
11.02
12.19
12.50
12.07
11.14
9.94
8.62
7.19
5.66
3.98
2.17
0.27
-1.60
-3.26
-4.47
-5.09
-5.21
-5.15
-5.43
-6.45
-8.26
-10.44
-12.15
-12.46
-10.65
-6.51
-0.43
6.74
13.93
20.03
24.30
26.49
27.12
27.36
28.87
33.25
41.37
52.93
66.36
79.22
89.10
94.53
95.55
93.69
91.26
90.32
91.65
94.34
95.95
93.33
83.72
65.75
39.98
8.93
-23.51
-53.05
-76.24
-91.39
-99.31
-103.14
-107.64
-117.76
-137.02
-166.31
-203.26
-242.71
-277.81
-301.65
-308.82
-296.50
-264.93
-217.23
-158.65
-95.43
-33.85
20.51
62.72
88.49
94.35
78.73
43.29
-6.01
-59.57
-106.70
-139.00
-152.73
-149.08
-132.38
-107.69
-79.32
-50.85
-25.99
-8.91
-3.35
-10.73
-29.11
-53.72
-79.03
-101.03
-118.21
-130.94
-140.16
-146.26
-149.03
-148.20
-143.99
-136.73
-126.57
-113.33
-97.01
-78.71
-60.83
-46.56
-38.47
-37.64
-43.81
-56.48
-75.46
-100.60
-130.46
-161.00
-185.91
-198.40
-194.11
-172.99
-139.32
-99.59
-59.47
-21.73
14.03
49.97
88.23
129.59
173.31
217.74
260.78
300.16
333.54
359.25
376.47
385.48
387.57
384.54
378.15
369.52
359.02
346.42
331.29
313.02
291.10
265.24
235.79
204.21
172.61
143.24
117.81
97.25
81.56
69.96
61.28
54.44
49.61
46.99
46.38
47.08
48.34
49.63
50.57
50.73
49.84
49.78
51.93
56.39
61.97
67.21
71.31
74.19
76.07
77.59
82.50
93.11
109.08
127.62
145.53
160.81
172.86
181.68
187.94
196.12
208.53
223.73
237.19
244.29
242.92
233.78
218.87
174.03
88.87
-28.89
-156.55
-271.93
-363.49
-428.72
-467.99
-487.22
-489.69
-473.93
-440.66
-394.41
-342.31
-291.22
-245.92
-207.92
-176.57
-149.74
-122.86
-94.04
-65.00
-39.88
-22.07
-11.70
-5.52
1.42
14.51
39.21
77.16
125.06
175.16
217.65
243.59
247.19
226.96
186.28
132.85
75.43
21.26
-25.31
-62.40
-89.32
-105.28
-109.27
-100.63
-80.14
-51.34
-20.20
6.50
23.63
29.36
25.26
14.85
1.62
-12.51
-27.40
-43.80
-62.09
-81.43
-99.74
-114.46
-123.61
-126.48
-123.89
-117.68
-109.76
-101.19
-91.76
-80.31
-65.83
-48.57
-30.84
-16.76
-11.10
-17.46
-36.62
-65.84
-99.48
-130.58
-152.81
-161.82
-156.05
-136.47
-106.28
-70.08
-33.00
0.17
25.76
42.13
50.42
54.01
57.38
64.09
75.61
91.46
109.97
129.05
146.75
161.69
172.80
179.43
181.27
178.98
174.89
172.32
173.37
177.36
180.85
178.42
165.08
137.73
96.27
43.96
-13.39
-69.41
-118.78
-157.27
-183.20
-194.92
-193.85
-187.27
-184.00
-186.21
-187.35
-179.98
-156.48
-114.76
-58.53
4.88
68.54
125.33
169.76
198.27
208.83
201.76
179.41
146.00
106.01
63.44
21.13
-18.98
-56.15
-91.10
-124.99
-158.99
-193.40
-226.99
-256.24
-275.50
-278.29
-259.90
-220.21
-163.37
-96.30
-26.71
38.90
96.53
144.66
183.39
213.40
233.82
243.41
242.49
233.62
222.29
215.93
220.97
239.42
267.05
292.79
303.88
292.20
256.94
205.03
147.80
95.88
52.49
21.24
-0.10
-21.60
-49.33
-85.83
-130.61
-180.76
-231.15
-274.55
-302.15
-307.49
-288.59
-249.28
-200.30
-155.92
-128.47
-123.67
-138.67
-163.55
-187.01
-200.87
-202.79
-197.31
-192.54
-195.39
-207.55
-224.36
-236.75
-236.13
-218.05
-183.14
-136.42
-84.18
-31.31
19.34
65.58
104.24
130.56
139.99
130.92
106.00
71.71
35.90
4.82
-18.73
-35.55
-48.85
-62.24
-78.06
-96.62
-116.23
-133.68
-145.11
-147.16
-137.79
-116.80
-85.80
-48.09
-8.23
28.63
57.82
76.53
84.69
85.10
82.27
80.56
82.40
87.78
94.85
101.51
106.64
110.30
112.97
114.51
113.90
109.77
101.63
90.56
79.06
70.05
65.65
66.69
72.81
83.16
96.94
113.39
131.46
149.46
165.27
176.90
183.38
185.13
183.70
181.05
178.63
176.88
175.28
172.94
169.15
163.62
156.42
147.67
137.33
125.21
111.22
95.57
78.85
61.92
45.68
30.77
17.50
5.85
-4.35
-13.29
-21.09
-27.78
-33.32
-37.67
-40.86
-43.14
-44.94
-46.83
-49.30
-52.63
-56.80
-61.47
-66.09
-70.12
-73.31
-75.75
-77.77
-79.74
-81.86
-84.25
-86.64
-88.36
-88.60
-86.90
-83.39
-78.68
-73.55
-68.64
-64.59
-61.22
-57.59
-52.47
-45.24
-36.26
-26.55
-17.17
-8.84
-2.45
1.77
4.22
5.21
4.48
1.35
-4.69
-13.36
-23.64
-35.26
-47.91
-60.89
-73.15
-83.26
-89.83
-91.86
-89.42
-78.94
-61.97
-45.36
-36.07
-34.74
-35.06
-28.80
-11.50
15.10
44.28
67.07
77.52
75.48
65.44
53.93
46.72
45.73
49.87
56.35
61.41
62.62
60.01
54.90
49.63
47.38
49.33
54.43
60.36
64.44
64.91
62.63
57.91
51.55
46.08
42.50
40.32
39.67
41.26
46.15
54.78
64.26
70.27
70.87
64.44
50.92
33.71
17.92
7.75
13.10
35.75
55.84
63.91
61.30
48.73
28.70
5.18
-16.91
-32.62
-39.67
-37.96
-27.88
-14.11
-4.14
-3.98
-16.29
-40.11
-71.73
-106.93
-140.80
-166.65
-180.18
-180.91
-171.52
-157.57
-145.54
-140.05
-142.11
-148.36
-151.97
-147.76
-134.65
-114.89
-92.66
-71.99
-55.38
-43.80
-37.56
-36.77
-42.25
-54.64
-73.06
-94.92
-116.59
-134.59
-145.98
-150.10
-149.22
-147.77
-150.04
-158.10
-171.22
-186.06
-197.86
-199.84
-187.43
-160.84
-124.65
-85.01
-47.59
-16.87
4.34
15.36
20.93
26.82
36.18
49.14
65.07
83.52
103.89
125.36
147.46
175.01
213.18
263.38
322.64
386.18
448.05
500.81
536.73
524.03
448.00
328.14
205.23
109.20
47.67
13.38
-5.38
-17.79
-28.75
-35.77
-36.19
-32.24
-31.20
-37.23
-49.09
-60.72
-63.70
-52.43
-24.76
14.06
52.01
75.84
78.64
62.11
33.01
2.14
-17.94
-19.21
-3.91
18.49
39.07
54.77
67.39
77.39
87.01
95.71
101.89
104.07
101.17
93.25
81.17
70.04
61.82
56.76
52.80
46.96
36.79
20.00
-3.22
-29.61
-54.68
-75.91
-92.66
-106.63
-120.80
-138.05
-163.37
-199.68
-245.67
-296.68
-347.62
-392.33
-423.88
-435.79
-424.15
-393.97
-352.58
-303.94
-248.34
-186.52
-120.66
-55.05
3.76
47.68
63.02
41.21
-14.90
-94.07
-184.54
-276.84
-362.88
-435.09
-446.97
-376.35
-250.16
-119.73
-18.48
45.89
80.36
96.75
105.68
114.49
119.18
115.22
105.25
97.37
98.39
111.07
135.27
170.41
208.55
240.47
261.28
273.75
285.11
300.61
321.28
345.36
370.61
396.03
420.53
444.59
470.13
497.29
521.02
532.33
522.80
488.65
432.43
361.00
282.81
205.59
134.80
73.14
21.50
-19.89
-51.67
-75.66
-95.00
-114.32
-138.23
-169.17
-206.89
-249.80
-296.76
-347.99
-403.35
-459.74
-511.66
-552.35
-574.63
-572.99
-546.11
-497.79
-435.58
-366.32
-292.75
-214.90
-132.79
-46.95
41.44
130.18
216.39
289.62
331.93
335.65
310.11
269.27
222.69
175.66
131.77
93.82
63.49
42.16
30.94
29.30
33.81
40.41
46.22
49.61
49.58
45.27
37.15
26.39
15.19
4.01
-7.38
-18.98
-30.80
-43.05
-56.44
-68.29
-78.71
-87.29
-94.60
-101.81
-109.76
-118.01
-124.30
-124.82
-115.38
-93.95
-61.92
-25.00
9.13
34.32
48.19
52.42
50.97
47.76
44.70
42.03
38.98
35.14
31.27
28.71
28.36
29.96
32.22
33.37
32.24
28.84
24.17
19.72
16.79
15.94
16.79
18.27
19.07
18.40
16.24
13.22
10.30
8.31
7.57
7.82
8.44
8.69
8.16
6.90
5.31
3.97
3.25
3.30
3.84
4.44
4.68
4.38
3.66
2.92
2.55
2.84
3.73
4.88
5.84
6.23
6.01
5.47
5.21
5.75
7.29
9.55
11.83
13.37
13.71
12.99
11.96
11.70
13.05
16.07
20.00
23.48
25.24
24.85
22.98
21.14
20.92
23.12
27.16
31.67
35.38
37.98
39.97
41.72
42.12
38.50
27.61
7.35
-21.27
-54.31
-86.38
-113.04
-132.19
-143.51
-146.86
-139.91
-119.79
-85.67
-41.66
2.57
34.80
45.51
32.39
1.37
-36.12
-68.30
-87.44
-92.10
-86.11
-75.57
-65.55
-58.03
-51.67
-43.16
-29.54
-9.84
13.93
37.69
57.16
69.86
76.38
79.64
83.00
88.09
94.23
99.25
101.29
100.25
97.87
96.62
98.60
104.44
112.73
121.10
127.38
130.68
131.56
131.27
130.37
127.69
120.46
105.26
80.61
48.36
13.52
-17.61
-39.79
-51.13
-53.02
-49.20
-44.67
-43.61
-48.69
-60.70
-78.41
-98.42
-115.64
-125.09
-120.46
-101.33
-73.01
-45.26
-28.80
-31.73
-57.32
-103.59
-164.39
-230.91
-293.50
-342.24
-368.53
-366.96
-336.93
-283.22
-214.68
-141.69
-73.49
-16.90
24.82
51.14
63.51
64.62
57.75
46.04
31.81
16.01
-1.76
-21.91
-43.44
-63.30
-76.85
-79.47
-68.59
-45.11
-13.25
20.85
51.33
74.22
87.76
91.74
86.57
73.09
52.93
28.92
4.95
-15.05
-28.37
-34.21
-33.28
-26.69
-14.90
2.32
24.94
51.49
78.49
101.32
115.91
120.47
116.07
105.86
93.58
82.21
73.40
67.72
65.39
66.70
71.90
80.77
92.35
105.17
117.89
129.79
140.74
150.64
158.83
164.05
165.05
161.34
153.75
144.10
134.41
125.95
118.93
112.80
106.89
100.91
94.88
88.78
82.17
74.19
64.07
51.61
37.49
23.11
10.02
-0.62
-8.46
-13.89
-17.72
-20.73
-23.37
-25.63
-27.26
-28.14
-28.64
-29.73
-32.63
-38.21
-46.46
-56.27
-65.76
-72.98
-76.61
-76.39
-72.99
-67.49
-60.71
-53.02
-44.47
-35.11
-25.31
-15.67
-6.75
1.25
8.48
15.01
20.26
22.56
19.83
10.61
-4.56
-22.83
-39.73
-50.88
-53.77
-48.87
-39.78
-31.20
-26.94
-28.02
-32.26
-35.09
-32.17
-21.35
-4.34
13.16
24.56
23.99
10.13
-12.98
-37.76
-57.07
-65.65
-60.14
-38.40
1.40
58.18
125.29
190.03
237.33
255.95
245.26
219.41
192.90
177.76
177.74
186.82
193.17
186.34
162.39
126.07
86.92
52.71
26.32
4.42
-19.34
-50.71
-87.61
-126.74
-164.02
-195.96
-220.58
-235.90
-240.39
-233.51
-216.50
-192.33
-165.69
-140.59
-119.90
-105.95
-100.76
-106.41
-123.89
-151.16
-181.90
-206.82
-215.70
-201.16
-161.40
-100.65
-27.91
45.40
107.75
149.75
165.11
151.96
113.08
55.73
-9.31
-69.48
-113.06
-132.00
-124.17
-94.41
-53.45
-15.10
7.87
7.38
-17.73
-62.24
-116.79
-170.61
-213.97
-239.56
-243.30
-224.72
-186.81
-135.07
-77.04
-21.22
24.40
53.81
63.94
55.03
30.47
-3.90
-40.05
-70.73
-91.38
-100.82
-100.78
-94.74
-86.76
-80.14
-76.12
-72.02
-63.73
-48.29
-25.52
1.93
29.77
54.21
74.50
94.43
122.64
166.24
225.47
292.05
352.16
392.15
404.02
388.29
341.88
272.45
196.09
129.21
79.38
43.89
16.40
-6.93
-26.28
-40.16
-47.33
-50.09
-53.15
-60.32
-71.18
-80.64
-81.64
-69.27
-42.90
-5.40
37.47
79.19
114.98
141.72
157.81
162.29
151.13
123.91
84.64
40.44
-2.55
-35.08
-50.98
-50.90
-41.70
-30.86
-22.01
-14.71
-7.17
1.14
9.59
16.17
19.02
15.93
7.25
-4.60
-16.67
-26.74
-34.42
-40.05
-45.07
-51.02
-60.30
-74.12
-92.16
-113.83
-134.33
-151.37
-163.59
-170.97
-165.51
-144.68
-111.89
-74.49
-39.38
-10.45
11.27
26.92
37.88
45.58
49.46
48.10
41.25
29.11
11.45
-11.63
-38.31
-64.92
-85.57
-95.59
-92.55
-77.22
-48.45
-11.04
27.94
62.85
86.53
96.46
95.10
87.24
76.62
65.10
52.94
40.95
30.53
22.88
18.98
18.23
18.76
18.58
16.74
12.94
8.06
3.42
0.01
-1.43
-1.15
-0.29
-0.15
-1.39
-4.23
-7.99
-11.72
-14.66
-16.26
-16.59
-16.40
-16.61
-17.76
-19.97
-22.67
-25.01
-26.26
-25.94
-24.02
-21.09
-17.95
-15.17
-12.91
-10.61
-7.68
-3.63
1.53
7.37
12.95
17.36
20.16
21.42
21.92
22.47
23.65
25.42
27.68
30.14
32.17
32.93
31.17
25.89
16.29
2.33
-14.75
-32.01
-45.93
-53.95
-55.71
-53.34
-49.94
-48.12
-48.47
-49.56
-48.59
-44.57
-39.98
-39.78
-48.13
-64.45
-82.95
-94.93
-92.99
-73.49
-39.08
2.65
43.41
75.43
96.59
109.67
119.58
130.80
148.04
174.63
211.87
258.33
310.10
361.52
405.26
433.66
429.34
384.71
306.45
213.03
124.06
51.39
-2.38
-40.40
-66.96
-84.89
-94.21
-95.06
-90.21
-86.07
-88.94
-101.32
-121.12
-143.77
-164.77
-180.85
-189.03
-191.00
-193.07
-202.20
-222.78
-255.74
-299.10
-348.45
-396.24
-433.37
-440.48
-406.70
-335.63
-244.54
-155.13
-83.01
-33.39
-2.40
17.84
34.14
48.81
61.17
70.92
79.34
88.70
100.68
116.12
135.16
157.80
183.49
210.10
238.64
271.50
309.53
350.41
388.62
416.98
429.02
420.57
391.88
348.13
296.82
243.92
192.94
145.24
100.97
59.49
19.16
-21.24
-61.34
-98.33
-129.07
-149.94
-158.38
-154.89
-144.10
-133.79
-131.31
-140.82
-162.10
-194.29
-236.30
-287.01
-344.25
-404.04
-460.01
-503.44
-526.58
-509.43
-444.69
-343.67
-232.35
-135.08
-62.45
-13.32
27.09
69.56
113.31
148.46
163.08
149.69
109.97
54.04
-3.97
-50.81
-76.98
-79.19
-61.72
-32.40
1.27
34.50
64.16
87.21
100.64
102.02
92.09
74.97
57.81
48.29
51.48
67.03
89.06
108.62
116.21
104.84
71.36
17.52
-49.92
-120.06
-180.24
-219.20
-230.03
-212.20
-170.99
-115.31
-54.52
3.80
54.55
94.69
122.59
138.25
143.61
142.57
140.02
140.15
144.90
153.76
164.77
175.92
186.28
195.84
204.80
212.66
218.13
219.84
217.33
211.66
205.14
200.43
199.26
201.59
205.42
207.39
203.94
192.50
172.36
144.77
112.42
78.52
45.85
16.26
-9.45
-31.27
-49.55
-64.69
-76.93
-86.46
-93.51
-98.48
-101.86
-104.12
-105.56
-106.22
-105.90
-104.35
-101.40
-97.23
-92.41
-87.97
-85.11
-84.99
-88.29
-94.90
-103.81
-113.20
-120.90
-125.07
-124.82
-120.56
-113.70
-105.96
-98.43
-90.97
-82.30
-70.72
-55.22
-36.24
-15.80
3.14
17.81
26.73
30.36
30.87
31.32
34.29
40.80
49.94
59.18
65.65
67.50
65.05
61.01
59.45
64.26
77.14
96.66
118.09
134.88
140.42
130.02
102.64
61.72
15.18
-26.20
-51.67
-54.02
-32.60
5.97
49.89
86.37
106.16
106.52
90.84
66.23
39.89
16.13
-4.03
-21.13
-35.30
-45.54
-50.09
-48.71
-43.10
-36.64
-33.87
-37.93
-48.65
-61.71
-70.81
-69.86
-57.19
-35.97
-13.54
-0.85
-8.37
-41.16
-95.32
-157.89
-209.62
-234.10
-222.70
-178.58
-117.46
-61.20
-28.54
-27.93
-55.69
-98.53
-143.71
-182.49
-201.40
-192.29
-156.74
-106.92
-58.69
-30.17
-16.11
-6.42
8.45
33.67
72.48
120.81
169.47
206.77
223.34
216.87
189.85
150.67
107.96
67.57
35.92
18.63
16.45
24.89
39.00
50.75
63.28
79.89
102.74
132.13
169.49
211.17
249.54
276.40
284.98
273.46
242.00
194.84
137.90
76.77
14.84
-45.53
-101.07
-147.75
-182.60
-209.07
-232.38
-258.07
-288.89
-324.37
-361.06
-393.30
-414.68
-399.27
-335.02
-228.04
-102.63
14.79
108.00
173.28
211.10
233.61
249.46
259.40
261.51
250.49
222.89
180.74
128.10
70.58
14.50
-36.29
-82.14
-124.34
-168.02
-215.99
-268.30
-323.40
-379.61
-435.99
-493.29
-552.60
-584.84
-567.19
-491.49
-370.87
-231.34
-98.03
12.50
93.05
144.72
174.89
189.46
194.87
198.10
205.04
219.55
242.26
269.51
294.72
311.23
307.01
279.14
233.72
182.62
137.68
106.99
92.32
93.48
109.83
138.46
175.81
217.82
262.15
305.72
346.13
380.83
405.23
413.53
400.51
363.25
302.94
226.84
145.05
66.51
-4.39
-69.51
-132.94
-197.13
-264.01
-334.26
-404.59
-469.08
-520.87
-554.07
-567.19
-560.75
-535.40
-495.65
-448.01
-395.42
-337.08
-270.10
-179.50
-64.69
48.01
145.06
222.90
270.88
284.33
269.46
240.78
212.94
192.07
178.16
168.82
158.65
142.68
119.86
90.91
55.57
12.13
-43.23
-103.34
-153.73
-179.91
-174.24
-138.46
-83.96
-27.45
15.79
36.83
37.22
26.68
15.76
10.78
13.14
20.13
27.51
32.28
33.72
33.66
34.26
35.61
35.51
31.83
24.05
13.74
3.77
-3.21
-5.79
-4.32
-1.24
0.38
-1.58
-7.45
-15.87
-24.58
-31.34
-34.81
-35.16
-33.74
-32.43
-32.76
-35.26
-39.24
-43.06
-44.72
-42.48
-35.61
-24.17
-9.27
7.31
23.78
38.86
52.13
64.00
75.36
86.94
98.68
109.59
117.89
121.93
120.82
115.26
107.28
99.64
95.00
95.00
100.08
109.37
120.93
131.96
138.95
138.35
127.21
104.46
71.99
34.90
-0.04
-26.58
-41.06
-43.32
-35.60
-20.23
2.14
32.32
70.30
112.16
149.26
170.63
167.45
137.41
86.20
25.16
-34.32
-83.56
-120.67
-150.73
-182.25
-222.89
-275.41
-336.03
-395.41
-441.36
-462.67
-452.51
-410.53
-343.25
-262.82
-184.35
-122.33
-86.61
-79.11
-92.94
-114.70
-129.30
-125.19
-98.12
-51.25
7.16
68.10
125.23
176.08
220.62
259.56
293.66
324.05
352.97
382.33
411.94
438.27
454.93
455.31
435.14
394.86
339.74
278.27
218.07
163.60
116.05
75.35
41.93
16.65
0.05
-9.09
-13.47
-17.66
-26.04
-40.99
-61.32
-80.41
-90.81
-87.57
-76.55
-64.63
-58.19
-59.32
-69.33
-88.24
-115.82
-152.72
-199.67
-255.98
-317.46
-377.37
-428.22
-464.39
-483.46
-486.72
-478.21
-462.47
-442.56
-418.79
-390.55
-357.86
-322.47
-286.95
-253.54
-223.20
-195.04
-166.64
-134.79
-97.44
-54.98
-10.97
28.80
57.90
71.68
69.30
54.60
35.37
20.71
18.11
31.41
60.17
100.16
144.63
185.77
216.30
230.90
227.31
206.87
174.32
136.60
101.05
73.46
56.92
51.29
53.88
60.58
67.22
70.82
70.41
67.36
64.71
65.79
72.70
85.43
101.95
119.32
134.94
147.38
156.33
161.93
164.57
165.04
164.93
166.64
172.44
183.01
196.61
209.27
216.54
215.48
206.08
190.91
173.65
157.31
143.29
131.51
121.22
111.63
102.22
92.67
82.62
71.70
59.76
46.80
32.96
18.32
2.73
-14.04
-31.85
-50.18
-68.07
-84.44
-98.24
-108.73
-115.39
-117.84
-115.75
-108.39
-95.51
-77.63
-56.22
-33.42
-11.30
8.69
25.97
40.56
53.51
65.32
75.57
83.17
86.96
86.32
81.14
71.26
56.21
36.98
15.16
-6.55
-24.43
-34.41
-33.07
-18.87
7.20
41.77
82.10
124.70
165.50
200.09
224.30
235.18
231.56
214.17
174.88
113.72
39.72
-30.28
-78.89
-96.65
-85.48
-55.75
-20.30
10.86
34.23
49.25
54.91
48.07
25.08
-14.46
-65.25
-117.37
-160.07
-185.12
-190.99
-182.32
-166.76
-151.10
-138.60
-129.13
-121.08
-113.19
-104.47
-95.00
-85.36
-76.23
-67.99
-60.40
-53.11
-45.92
-38.99
-32.44
-26.58
-21.82
-18.46
-16.57
-15.91
-15.99
-16.32
-16.54
-16.38
-15.80
-14.95
-14.28
-14.22
-15.07
-16.92
-19.54
-22.50
-25.27
-27.42
-28.73
-29.44
-30.01
-31.08
-33.25
-36.87
-41.49
-45.66
-47.12
-43.55
-33.67
-17.86
1.63
21.13
36.65
45.17
45.62
39.09
28.55
17.68
10.06
8.07
12.22
20.91
30.97
38.43
39.76
34.32
22.74
7.56
-7.96
-21.42
-32.24
-41.35
-49.93
-57.85
-63.21
-63.35
-56.53
-43.49
-27.58
-12.92
-2.22
4.39
8.65
12.17
14.91
14.81
9.24
-3.18
-21.22
-41.43
-60.36
-77.02
-93.84
-114.95
-143.53
-179.41
-218.04
-251.26
-270.17
-268.77
-246.37
-207.83
-159.92
-108.70
-57.90
-9.28
35.77
74.36
101.54
112.42
105.20
85.62
65.31
56.97
68.63
100.52
145.86
194.13
236.20
260.01
259.15
236.23
201.51
165.40
132.99
104.62
79.17
58.78
44.45
39.79
47.95
69.58
102.43
142.81
187.50
232.09
273.26
307.89
334.42
351.41
357.05
349.36
327.36
292.17
247.30
198.12
150.16
108.34
74.23
45.99
19.35
-10.68
-48.07
-94.63
-148.96
-206.07
-256.59
-290.17
-296.88
-270.57
-212.23
-131.45
-44.16
32.93
88.27
119.07
126.78
117.38
98.21
75.41
52.20
29.15
6.11
-16.48
-37.84
-63.53
-99.22
-147.76
-207.40
-273.28
-339.93
-402.50
-457.25
-502.40
-545.61
-594.44
-651.95
-714.75
-776.11
-829.54
-870.52
-896.51
-861.33
-741.46
-546.73
-318.10
-100.73
78.67
214.17
311.77
381.54
432.22
462.63
470.70
457.42
428.90
392.71
355.01
320.37
292.57
274.15
260.28
244.94
223.58
195.15
160.52
120.51
75.21
28.26
-16.28
-56.42
-88.56
-107.41
-107.13
-85.01
-43.83
8.78
63.71
113.20
151.53
176.88
188.43
186.65
173.96
154.16
131.35
109.15
89.79
73.74
60.36
48.54
37.56
27.26
17.75
9.28
2.36
-2.58
-5.22
-5.80
-5.16
-4.18
-3.64
-4.18
-5.94
-8.58
-11.34
-13.31
-13.99
-13.50
-12.38
-11.36
-11.31
-12.51
-14.78
-17.41
-19.42
-20.18
-19.32
-16.21
-9.54
1.71
18.06
37.66
55.99
67.42
67.66
56.01
35.93
14.50
-2.30
-12.21
-16.48
-17.49
-14.71
-5.16
13.65
40.36
68.21
86.98
88.16
69.38
35.25
-4.96
-42.55
-72.38
-93.30
-105.73
-109.50
-103.48
-85.89
-60.41
-33.82
-13.63
-4.77
-7.56
-18.22
-31.47
-42.99
-51.21
-56.99
-61.65
-65.92
-69.68
-72.33
-73.46
-73.14
-71.83
-70.22
-68.81
-67.57
-65.50
-61.58
-55.09
-45.86
-34.38
-21.63
-8.90
2.70
12.95
22.40
32.09
42.97
55.40
69.02
82.44
93.64
100.72
102.71
99.92
93.59
85.29
76.18
66.85
56.66
44.42
29.15
10.93
-8.93
-28.24
-44.57
-55.78
-59.81
-55.66
-43.97
-27.66
-12.17
-4.52
-10.94
-34.02
-73.60
-121.76
-166.36
-195.57
-202.40
-186.91
-155.16
-115.66
-75.60
-38.70
-4.70
28.32
62.25
98.24
137.03
179.53
226.59
278.00
331.32
381.79
423.00
449.12
457.47
449.85
431.69
409.36
387.07
364.86
339.16
304.92
258.75
201.17
136.69
71.86
12.63
-37.90
-80.29
-117.91
-155.45
-196.56
-241.85
-287.94
-327.75
-352.23
-353.20
-326.24
-272.97
-201.44
-124.47
-56.39
-9.61
8.02
-5.73
-47.77
-110.59
-183.61
-254.67
-311.98
-346.22
-352.33
-330.30
-284.49
-222.07
-151.29
-80.32
-16.67
33.08
63.93
73.63
63.92
40.43
11.10
-16.40
-37.15
-50.11
-57.37
-62.50
-68.52
-76.83
-87.02
-97.23
-104.80
-106.86
-101.09
-86.65
-64.82
-38.82
-13.09
7.95
21.22
25.62
21.92
12.23
-0.81
-14.46
-26.07
-33.11
-33.50
-26.33
-12.66
4.14
18.87
25.99
21.45
4.32
-22.56
-53.20
-80.17
-96.82
-98.96
-85.72
-59.12
-23.02
18.10
60.03
99.34
133.75
162.47
186.25
207.03
227.03
247.50
268.00
286.27
299.28
304.63
301.70
291.71
276.91
259.41
240.41
220.28
199.19
177.67
156.76
137.53
120.44
105.05
90.22
74.74
57.92
39.97
21.99
5.44
-8.35
-18.70
-25.71
-30.16
-33.22
-36.02
-39.38
-43.60
-48.54
-53.77
-58.83
-63.39
-67.21
-70.02
-71.49
-71.18
-68.73
-64.12
-57.71
-50.21
-42.47
-35.26
-29.06
-24.00
-19.94
-16.57
-13.51
-10.47
-7.29
-3.94
-0.51
2.93
6.31
9.52
12.36
14.50
15.59
15.25
13.20
9.31
3.54
-4.18
-14.03
-26.07
-39.88
-54.36
-67.95
-79.07
-86.69
-90.81
-92.53
-93.51
-94.87
-96.20
-95.28
-89.16
-75.82
-55.90
-33.05
-12.99
-1.43
-2.01
-14.44
-34.45
-55.90
-73.50
-83.88
-84.58
-73.20
-48.24
-11.35
31.07
68.86
91.89
94.82
79.80
55.22
31.23
14.81
7.55
6.64
8.17
9.71
11.01
13.04
16.21
19.81
22.38
22.81
20.83
17.24
13.37
10.04
7.26
4.29
0.20
-5.59
-12.97
-21.14
-28.77
-34.44
-37.35
-37.66
-36.77
-36.68
-39.15
-44.45
-50.33
-52.10
-44.29
-23.57
8.76
45.90
78.09
96.38
96.25
79.45
53.10
26.83
9.40
6.42
19.26
46.23
82.97
122.89
157.47
177.26
175.30
149.45
103.45
44.88
-16.53
-72.41
-118.30
-154.09
-182.77
-208.23
-233.33
-258.24
-280.45
-293.88
-291.66
-269.70
-228.84
-174.62
-114.95
-57.05
-1.00
49.85
92.52
125.52
148.39
161.09
164.62
161.75
156.84
155.15
159.14
169.92
187.31
209.35
232.93
254.39
270.33
278.40
275.31
260.00
234.75
204.18
172.74
143.43
117.09
93.04
69.23
43.18
12.39
-25.28
-70.73
-124.48
-185.88
-252.41
-319.21
-379.27
-424.50
-447.96
-446.89
-423.47
-386.36
-346.99
-314.74
-292.94
-277.83
-261.24
-235.07
-196.15
-145.77
-90.07
-35.56
14.05
59.27
103.79
151.88
209.22
269.20
327.77
377.43
410.81
423.46
415.30
390.63
356.10
318.53
282.18
249.69
220.73
194.28
169.62
146.44
124.06
99.74
69.59
29.30
-22.43
-83.69
-148.41
-208.01
-254.67
-284.93
-302.94
-317.77
-339.80
-374.86
-421.90
-472.26
-513.24
-533.12
-524.98
-489.99
-433.69
-363.67
-287.05
-210.27
-139.16
-79.18
-34.75
0.98
31.16
58.63
85.39
112.33
138.36
160.45
174.77
178.10
172.70
161.97
151.49
146.96
152.09
167.28
189.81
213.72
230.15
232.59
219.02
193.73
163.43
133.32
105.75
81.13
59.64
42.33
31.08
26.21
26.42
28.74
29.66
26.62
19.30
9.51
0.37
-4.93
-5.23
-1.61
2.98
5.32
3.32
-2.86
-11.13
-18.49
-22.08
-20.24
-12.58
-0.13
15.24
30.56
42.02
45.86
39.89
24.91
4.92
-14.23
-26.58
-29.15
-22.77
-10.80
2.87
15.75
26.90
35.98
41.92
42.92
36.43
20.67
-3.92
-34.23
-64.72
-88.59
-99.15
-94.06
-75.90
-51.35
-28.47
-13.21
-7.28
-8.22
-11.70
-14.40
-15.84
-17.87
-22.47
-29.98
-38.30
-43.99
-44.37
-39.14
-30.54
-21.98
-16.62
-15.04
-15.47
-14.64
-9.28
2.99
23.02
49.89
80.62
110.02
131.17
136.68
121.80
87.33
41.06
-3.92
-33.97
-40.35
-22.68
11.74
51.52
86.19
108.98
116.92
109.23
85.75
46.85
-5.00
-63.97
-121.60
-169.10
-200.75
-216.71
-222.68
-227.05
-236.46
-252.68
-271.38
-284.43
-283.54
-264.48
-229.12
-184.65
-140.57
-104.72
-80.35
-65.57
-56.03
-46.09
-31.20
-9.41
18.70
50.98
85.03
119.07
152.39
185.28
219.03
255.25
295.39
340.63
390.90
444.09
495.32
537.18
561.08
560.08
531.62
479.37
412.62
343.26
281.56
232.57
194.99
163.19
131.44
97.75
65.31
40.56
29.08
31.79
43.80
56.54
61.99
56.64
42.64
25.88
12.40
5.19
3.39
3.66
2.53
-1.62
-8.76
-18.36
-31.00
-48.60
-73.77
-108.32
-152.46
-204.64
-262.36
-323.24
-385.33
-446.90
-505.56
-557.81
-599.07
-624.59
-630.62
-615.63
-580.93
-530.76
-471.80
-411.89
-358.36
-316.04
-285.75
-263.82
-243.14
-215.86
-176.71
-125.98
-70.25
-20.67
11.03
17.31
-1.91
-38.94
-81.16
-115.76
-134.04
-133.65
-118.00
-93.62
-67.08
-43.03
-23.83
-10.40
-3.06
-1.86
-6.04
-13.57
-21.09
-24.58
-20.65
-7.74
13.34
39.81
68.18
95.68
121.12
144.85
167.81
190.41
211.73
229.74
242.07
247.09
244.76
236.67
225.56
214.42
205.74
201.07
200.94
204.98
212.08
220.76
229.36
236.40
240.81
242.09
240.28
235.82
229.42
221.85
213.76
205.53
197.24
188.77
179.84
170.16
159.49
147.69
134.80
121.07
106.94
92.96
79.73
67.54
56.32
45.54
34.51
22.69
9.96
-3.21
-15.90
-26.93
-35.41
-41.02
-44.09
-45.34
-45.54
-45.15
-44.27
-42.83
-40.60
-37.83
-35.25
-33.84
-34.12
-35.69
-37.19
-36.80
-33.00
-24.63
-11.86
3.90
20.14
34.38
44.60
49.76
49.70
45.26
38.83
32.92
29.38
28.35
29.01
29.83
29.51
27.45
23.87
20.66
19.06
18.61
16.28
8.77
-6.54
-30.43
-61.91
-103.57
-152.17
-198.81
-230.89
-238.53
-218.61
-177.05
-125.33
-76.18
-38.64
-14.85
-2.08
8.81
19.73
29.96
38.30
45.53
53.40
63.51
76.66
91.07
103.17
108.73
106.38
92.83
70.47
43.56
16.09
-8.45
-27.72
-40.35
-46.38
-46.24
-41.27
-32.93
-23.45
-14.92
-8.32
-3.89
-1.54
-1.56
-3.85
-7.92
-12.17
-14.98
-15.15
-12.23
-7.00
-1.20
2.89
3.50
0.05
-6.40
-13.93
-20.46
-24.33
-24.86
-22.41
-18.26
-13.99
-11.09
-10.39
-12.17
-16.02
-20.98
-25.68
-28.68
-28.82
-25.52
-18.96
-10.01
-0.04
9.42
17.06
22.03
24.07
23.41
20.58
16.28
11.17
5.78
0.46
-4.66
-9.66
-14.73
-20.02
-25.51
-30.87
-35.53
-38.91
-40.67
-40.84
-39.87
-38.42
-37.16
-36.49
-36.49
-37.01
-37.75
-38.33
-38.44
-37.79
-36.15
-33.43
-29.68
-25.07
-19.95
-14.68
-9.58
-4.93
-0.87
2.55
5.30
7.28
8.34
8.34
7.18
4.80
1.17
-3.72
-9.80
-16.87
-24.59
-32.58
-40.46
-48.00
-55.24
-62.50
-70.29
-78.93
-88.48
-98.54
-108.21
-116.21
-121.29
-122.74
-120.73
-116.42
-111.28
-106.85
-103.98
-102.24
-99.71
-93.65
-81.61
-62.70
-38.16
-10.65
15.89
37.39
51.15
57.13
58.28
59.73
66.88
83.30
109.82
142.82
174.81
197.17
203.66
192.95
169.29
141.01
117.95
109.71
120.97
149.74
187.87
223.98
247.32
251.30
234.78
195.90
141.12
82.36
31.88
-3.71
-24.38
-33.19
-32.12
-22.55
-6.39
14.43
35.42
51.37
58.64
57.01
48.99
38.99
29.49
20.28
10.58
-2.40
-21.37
-47.29
-78.56
-111.80
-142.96
-166.11
-179.22
-174.81
-150.35
-108.49
-56.16
-1.61
43.13
78.16
105.03
123.71
133.50
134.06
124.61
105.88
80.28
51.26
23.08
-2.44
-25.26
-45.46
-63.65
-79.93
-93.46
-103.01
-107.62
-106.67
-101.87
-96.05
-91.75
-91.38
-96.83
-109.06
-127.75
-150.80
-173.71
-191.42
-198.65
-191.11
-167.09
-127.90
-77.10
-19.76
38.94
94.38
140.93
173.57
189.36
188.80
176.24
159.12
146.02
144.07
156.33
178.09
199.91
211.24
204.85
179.03
137.74
88.96
41.84
3.14
-28.09
-57.10
-89.92
-130.09
-177.89
-231.06
-285.31
-334.69
-372.95
-399.30
-415.19
-423.41
-427.05
-429.76
-435.90
-448.62
-468.02
-463.18
-411.57
-309.23
-175.12
-37.48
83.06
178.85
251.43
305.92
345.59
370.11
376.16
362.42
332.28
291.97
247.08
200.46
155.67
115.74
79.64
45.25
11.72
-19.13
-44.14
-60.97
-69.04
-69.42
-64.93
-61.21
-63.31
-72.50
-84.85
-92.78
-88.57
-67.90
-31.84
12.93
55.92
87.65
103.72
105.77
99.25
89.96
81.49
74.76
68.96
62.95
56.52
50.58
46.30
43.97
42.80
41.35
38.30
33.28
26.92
20.52
15.40
12.23
10.79
10.07
8.82
6.14
1.85
-3.58
-9.22
-14.14
-17.90
-20.62
-22.90
-25.48
-28.92
-33.33
-38.51
-44.04
-49.42
-54.41
-58.96
-63.11
-66.83
-69.96
-71.92
-71.98
-69.60
-64.04
-54.95
-42.39
-26.70
-8.57
11.14
31.46
51.25
69.48
85.28
97.98
107.19
112.79
114.82
113.49
109.09
101.85
91.99
79.83
65.83
50.70
35.44
21.18
8.99
-0.28
-6.31
-9.29
-9.80
-8.48
-5.89
-2.17
2.68
8.74
15.85
23.35
30.20
35.25
37.84
38.05
36.81
35.65
36.11
39.04
44.21
50.42
56.05
59.96
61.96
63.13
65.45
71.17
82.00
98.57
120.12
144.29
167.51
185.31
193.80
191.56
180.90
167.49
157.92
156.39
160.66
164.14
157.67
133.98
91.87
37.30
-19.01
-66.44
-99.05
-117.34
-126.72
-134.42
-146.12
-164.17
-187.44
-211.95
-231.50
-238.72
-227.11
-193.93
-142.95
-85.05
-35.60
-9.19
-13.81
-47.19
-97.45
-147.67
-182.49
-193.89
-183.56
-160.85
-137.83
-123.62
-120.78
-125.13
-128.61
-123.91
-108.14
-83.91
-57.68
-36.47
-24.98
-24.37
-32.96
-47.53
-64.41
-79.69
-89.23
-89.05
-76.56
-52.13
-19.92
12.89
38.38
50.62
47.73
32.14
9.21
-15.26
-37.24
-55.71
-72.25
-89.78
-110.87
-136.58
-165.97
-196.35
-223.97
-244.96
-256.02
-255.00
-241.11
-215.22
-179.98
-139.57
-99.00
-63.02
-34.88
-15.44
-3.05
5.65
14.43
26.24
42.34
62.24
84.30
106.53
127.33
145.81
161.93
176.17
189.23
201.61
213.36
224.00
232.88
239.66
244.73
249.23
254.68
262.09
271.39
281.35
290.04
295.65
297.15
294.37
287.50
276.61
261.27
240.91
215.39
185.58
153.46
121.63
92.44
67.37
46.74
30.01
16.39
5.26
-3.64
-10.43
-15.41
-19.29
-23.06
-27.67
-33.58
-40.65
-48.23
-55.58
-62.20
-67.96
-72.98
-77.35
-80.88
-83.12
-83.58
-82.06
-78.80
-74.45
-69.68
-64.92
-60.08
-54.67
-48.17
-40.39
-31.63
-22.68
-14.51
-7.94
-3.39
-0.84
-0.03
-0.57
-2.12
-4.33
-6.83
-9.08
-10.21
-9.14
-4.67
4.11
17.36
34.18
52.71
70.62
85.84
97.16
104.46
108.56
110.94
113.51
118.12
126.38
138.81
154.41
170.43
182.79
187.28
181.18
164.75
141.88
119.23
103.82
100.44
109.48
126.42
143.54
152.65
147.61
125.85
88.20
37.99
-19.96
-79.75
-134.83
-178.54
-205.59
-213.68
-204.64
-184.14
-159.89
-139.17
-126.77
-124.39
-130.75
-142.92
-157.57
-171.82
-183.68
-192.22
-197.27
-199.17
-198.18
-194.28
-187.62
-178.73
-168.93
-160.25
-154.63
-152.98
-154.60
-157.26
-158.17
-155.25
-148.05
-137.70
-126.14
-114.90
-104.28
-93.41
-80.91
-65.78
-47.86
-27.86
-7.00
13.20
30.94
44.21
50.98
49.86
40.75
25.27
6.52
-11.65
-25.79
-33.71
-35.08
-31.30
-24.95
-19.06
-16.24
-17.95
-24.13
-33.26
-42.97
-50.98
-56.00
-58.09
-58.47
-58.93
-60.90
-64.96
-70.87
-77.98
-85.51
-92.62
-97.99
-99.42
-94.34
-80.56
-57.87
-28.80
1.77
28.22
46.40
54.80
54.47
47.34
35.27
19.88
3.48
-9.52
-12.97
-1.29
27.18
68.05
111.26
145.43
162.42
160.41
143.63
118.69
90.91
62.29
35.37
12.87
-0.72
-0.42
16.31
47.88
88.09
128.86
163.23
187.50
200.60
204.97
203.09
195.49
181.82
160.83
131.83
95.49
53.71
9.11
-33.57
-69.87
-97.75
-111.74
-108.48
-87.26
-50.87
-5.00
43.73
85.75
118.47
139.96
149.26
145.67
129.50
103.20
69.92
33.56
-3.22
-38.11
-71.37
-103.13
-133.32
-160.98
-184.46
-202.12
-212.23
-215.57
-203.99
-173.39
-123.79
-60.38
8.58
75.31
130.12
173.44
205.13
225.17
232.61
228.13
214.92
196.47
175.85
155.12
134.88
111.29
81.00
41.87
-4.79
-55.22
-105.07
-151.15
-191.74
-227.37
-263.62
-305.76
-357.71
-420.18
-490.78
-564.78
-635.54
-694.52
-714.81
-680.04
-590.64
-466.60
-336.85
-224.73
-140.29
-87.01
-52.99
-28.28
-10.70
-0.69
2.00
0.69
1.30
9.09
26.44
53.25
85.72
116.72
140.69
155.48
162.74
166.16
170.38
178.00
189.80
203.69
215.74
223.43
226.74
228.00
230.16
237.24
251.03
271.20
295.02
318.85
340.53
360.16
379.72
401.27
428.20
461.15
497.76
533.28
562.80
583.86
596.91
604.53
591.30
547.62
471.28
369.68
256.03
142.24
34.14
-68.44
-167.60
-263.15
-347.40
-409.60
-440.95
-439.53
-411.72
-368.76
-322.84
-279.18
-239.06
-201.18
-166.80
-140.58
-128.15
-132.20
-149.15
-170.20
-184.76
-186.29
-174.51
-155.76
-139.96
-136.20
-149.22
-177.92
-215.84
-253.99
-282.33
-293.79
-287.28
-268.21
-245.62
-227.31
-216.23
-210.32
-206.33
-200.88
-193.61
-186.53
-181.96
-180.59
-180.94
-180.30
-176.75
-170.13
-161.87
-154.86
-151.71
-153.61
-159.65
-166.95
-171.75
-170.56
-161.30
-143.63
-119.23
-90.88
-61.48
-33.06
-6.18
20.15
48.02
80.11
118.99
166.29
221.95
283.51
345.98
402.74
447.54
476.76
490.91
494.82
495.96
501.65
516.10
538.39
562.32
578.40
577.22
552.78
504.41
436.79
357.72
275.09
194.37
117.32
42.59
-32.67
-110.89
-192.38
-274.51
-351.84
-417.25
-463.70
-486.73
-486.05
-465.64
-432.12
-392.23
-350.62
-309.24
-268.13
-226.96
-186.15
-146.59
-108.67
-71.55
-33.07
9.08
56.15
107.93
163.39
221.66
282.77
346.96
412.95
476.52
530.26
565.62
576.02
559.68
520.60
467.10
408.70
353.00
304.22
263.06
228.12
197.26
168.25
138.94
107.42
73.00
37.18
3.70
-22.86
-39.50
-46.97
-50.35
-57.15
-74.62
-107.11
-154.73
-213.66
-277.35
-337.46
-384.87
-411.36
-411.65
-385.53
-338.33
-279.37
-219.03
-165.81
-125.07
-99.93
-92.99
-106.46
-140.99
-193.31
-255.06
-314.26
-358.83
-380.77
-378.40
-355.74
-319.70
-276.54
-229.49
-178.75
-123.42
-64.16
-5.58
43.58
72.91
74.94
49.16
3.64
-47.08
-87.24
-105.48
-98.71
-71.82
-33.86
7.03
46.84
85.75
125.22
164.35
198.07
218.27
217.36
192.03
145.08
84.42
19.77
-40.65
-91.94
-132.07
-160.03
-174.06
-171.73
-151.57
-115.26
-68.76
-21.19
17.92
41.66
47.76
38.80
20.71
0.37
-16.30
-25.60
-26.40
-19.61
-7.36
7.97
24.42
40.96
57.46
74.49
92.81
112.89
134.59
157.10
179.11
199.08
215.61
227.65
234.75
236.96
234.81
229.06
220.58
210.12
198.27
185.38
171.74
157.71
143.77
130.51
118.47
107.90
98.67
90.31
82.22
73.79
64.63
54.51
43.47
31.78
20.05
9.12
-0.16
-7.19
-11.95
-15.02
-17.35
-19.88
-23.16
-27.26
-31.84
-36.44
-40.71
-44.46
-47.52
-49.64
-50.39
-49.17
-45.49
-39.26
-31.05
-22.10
-14.14
-8.85
-7.46
-10.30
-16.62
-24.75
-32.57
-38.12
-40.30
-39.18
-35.82
-31.51
-26.90
-21.36
-13.32
-1.15
15.60
35.33
54.53
68.92
75.17
72.33
62.71
51.21
43.80
45.10
56.49
75.40
96.11
111.98
117.99
112.54
97.21
75.87
53.39
34.93
25.51
28.93
46.17
73.73
103.91
127.59
138.48
136.44
127.26
118.66
114.97
113.81
107.03
85.52
44.82
-11.72
-74.13
-130.78
-173.51
-200.50
-215.82
-226.24
-237.39
-250.83
-263.34
-268.07
-257.52
-226.57
-175.34
-110.13
-42.06
16.40
55.34
69.90
60.90
33.55
-4.47
-44.68
-79.12
-100.94
-104.55
-86.83
-48.97
2.37
55.80
98.26
119.88
116.83
91.92
53.09
9.61
-31.17
-64.77
-88.61
-100.39
-97.04
-77.92
-47.83
-17.33
-0.12
-7.72
-44.37
-105.28
-178.77
-250.26
-300.80
-316.21
-289.69
-223.90
-129.53
-20.63
89.54
185.51
263.46
321.22
355.53
364.47
349.67
317.39
278.77
245.20
224.16
216.93
216.68
212.21
194.15
159.43
112.30
61.70
15.59
-22.22
-51.90
-76.79
-99.98
-121.88
-140.46
-153.03
-158.10
-157.73
-155.86
-156.09
-160.53
-168.71
-178.03
-185.31
-188.31
-186.62
-183.72
-184.56
-192.74
-209.07
-231.09
-254.36
-274.80
-290.30
-301.40
-313.27
-332.55
-364.21
-410.08
-469.10
-538.89
-616.95
-700.44
-764.79
-787.36
-753.33
-662.45
-530.16
-380.87
-238.14
-117.84
-25.88
34.83
71.40
90.70
98.23
99.14
99.26
105.15
122.99
156.75
206.06
262.93
314.22
347.14
354.96
340.38
314.50
292.20
285.58
299.25
328.40
361.93
388.94
403.73
407.39
405.62
405.14
410.65
423.74
442.80
463.85
482.35
494.07
496.07
486.80
465.77
433.05
388.86
333.49
267.44
192.62
112.55
31.50
-47.18
-121.90
-192.48
-258.55
-318.11
-368.10
-406.55
-435.24
-460.40
-489.95
-528.64
-573.92
-615.62
-639.88
-635.69
-599.78
-537.54
-459.37
-375.29
-291.08
-207.93
-125.26
-44.09
31.50
95.76
144.15
176.04
195.58
209.84
225.63
246.74
272.70
299.61
322.58
338.44
347.52
353.50
361.94
377.87
403.94
439.32
479.73
518.37
547.59
560.95
554.81
529.98
491.01
444.64
397.56
353.65
313.22
273.85
232.49
187.89
142.16
100.42
68.48
50.22
44.99
46.97
46.40
32.59
-2.45
-60.13
-134.64
-214.92
-288.17
-344.53
-379.82
-395.10
-394.06
-383.83
-369.27
-350.93
-327.42
-297.12
-260.34
-220.08
-182.38
-153.07
-135.61
-129.76
-131.95
-137.85
-141.34
-140.90
-139.28
-141.83
-153.39
-175.14
-202.71
-228.11
-243.37
-244.27
-232.07
-213.51
-197.88
-192.54
-199.52
-214.07
-229.23
-239.51
-242.35
-238.09
-228.30
-214.04
-195.33
-171.72
-143.28
-111.31
-77.86
-44.74
-12.80
18.15
48.72
79.01
107.74
132.47
150.35
159.76
161.46
158.61
156.06
159.05
172.01
197.13
233.24
274.87
313.37
339.57
347.41
337.33
317.17
299.58
296.96
315.91
353.98
400.52
440.79
461.18
453.34
416.10
354.98
279.95
202.61
133.38
78.77
40.24
14.17
-6.16
-27.81
-55.97
-93.18
-139.96
-195.47
-257.54
-321.34
-378.47
-417.77
-429.28
-409.71
-366.13
-315.25
-277.15
-266.63
-286.33
-325.44
-365.03
-386.90
-381.47
-350.61
-304.74
-256.31
-213.79
-178.96
-148.51
-117.86
-84.64
-50.21
-18.36
7.29
25.49
38.06
48.82
62.09
81.17
108.05
142.65
182.78
223.90
259.42
282.20
286.86
272.28
242.85
207.85
178.72
165.33
172.66
199.24
237.64
276.63
304.48
312.13
295.80
258.11
207.40
154.72
109.88
77.85
57.56
43.42
28.71
9.14
-15.31
-41.03
-63.35
-79.46
-89.50
-96.39
-103.80
-114.06
-127.27
-141.43
-153.60
-161.09
-162.32
-156.98
-146.08
-131.49
-115.52
-100.35
-87.70
-78.83
-74.96
-77.49
-87.67
-105.68
-129.55
-154.83
-175.49
-185.54
-180.86
-160.04
-123.92
-74.67
-15.43
49.44
113.47
167.99
203.45
212.15
191.28
144.64
82.12
16.84
-38.72
-76.10
-92.55
-90.58
-76.08
-55.72
-34.89
-16.49
-1.17
11.78
23.40
34.31
44.74
54.64
63.71
71.30
76.19
76.83
72.03
61.72
47.45
32.24
19.56
12.17
11.20
16.00
24.76
35.31
45.94
55.56
63.68
70.13
75.03
78.70
81.69
84.54
87.57
90.67
93.18
94.28
93.34
90.33
85.89
81.03
76.65
73.19
70.42
67.67
64.11
59.16
52.74
45.23
37.35
29.95
23.77
19.21
16.13
13.81
11.07
6.62
-0.47
-10.40
-22.36
-34.66
-45.18
-51.95
-53.68
-50.13
-42.07
-31.22
-19.81
-10.10
-3.75
-1.45
-2.68
-5.87
-8.93
-9.55
-6.00
2.65
16.33
34.00
53.58
72.35
87.59
97.72
103.88
109.47
119.34
136.90
161.96
189.72
211.99
220.15
208.49
177.14
131.56
81.00
35.81
4.95
-5.91
4.68
33.79
70.03
99.94
110.57
94.51
53.52
-2.10
-58.79
-105.83
-139.13
-160.82
-175.27
-186.08
-193.91
-196.90
-192.80
-181.16
-164.06
-145.07
-128.22
-116.05
-109.42
-107.75
-109.54
-112.25
-113.17
-108.80
-95.50
-71.49
-38.59
-3.38
24.26
34.76
23.03
-8.79
-51.41
-91.71
-117.93
-123.75
-110.43
-85.18
-57.43
-34.71
-20.23
-12.64
-7.87
-1.99
7.31
19.71
32.95
44.24
51.79
55.51
56.77
57.64
60.01
65.21
73.67
84.99
98.06
111.26
122.83
131.37
136.07
136.83
133.91
127.68
118.48
106.93
93.96
80.74
68.02
55.66
42.55
27.24
8.87
-12.03
-33.45
-52.81
-68.30
-79.93
-89.75
-100.95
-116.45
-137.52
-163.22
-190.71
-216.45
-237.41
-251.86
-259.44
-260.58
-256.04
-246.82
-234.20
-219.77
-205.41
-193.05
-184.09
-179.21
-177.95
-179.32
-182.52
-187.29
-193.66
-201.43
-209.60
-215.79
-216.57
-207.80
-186.31
-151.52
-105.72
-53.09
1.95
55.80
106.65
153.88
197.71
237.60
270.62
291.96
297.71
287.82
265.87
240.44
217.36
200.56
192.22
193.33
203.30
220.69
242.73
263.69
276.65
276.07
260.82
233.72
199.73
163.04
124.82
83.61
35.73
-20.71
-81.22
-134.02
-165.65
-167.40
-139.56
-95.82
-46.85
-0.19
39.68
70.24
91.00
100.24
97.14
85.13
71.51
66.77
78.52
108.17
147.95
190.03
227.21
254.08
267.71
267.83
256.93
238.61
216.90
195.02
174.40
153.61
129.81
101.02
67.09
30.50
-5.52
-38.12
-65.59
-87.89
-105.94
-120.62
-131.46
-138.51
-142.26
-144.19
-145.78
-147.99
-152.45
-159.96
-170.64
-182.38
-194.48
-207.10
-221.31
-237.49
-255.31
-276.21
-300.90
-329.42
-358.62
-387.98
-418.74
-453.42
-492.97
-536.02
-581.79
-626.62
-665.08
-687.96
-691.36
-676.43
-649.13
-616.15
-563.96
-487.39
-388.04
-297.91
-228.48
-183.03
-152.43
-131.01
-112.78
-91.83
-66.35
-35.40
1.05
46.18
99.35
157.65
216.14
271.14
320.77
362.66
396.70
424.40
450.74
477.47
503.85
527.20
545.97
560.55
571.71
581.91
594.10
611.89
634.54
657.01
670.73
667.21
640.91
590.46
519.92
436.78
349.86
265.03
184.76
109.20
38.79
-24.49
-77.76
-118.44
-145.82
-161.44
-169.07
-173.20
-177.70
-184.82
-194.91
-207.03
-219.39
-229.83
-235.92
-235.00
-224.39
-201.81
-166.31
-119.05
-64.02
-7.22
45.05
88.38
121.87
148.11
171.43
195.30
220.18
242.38
255.92
255.49
239.09
209.11
171.14
131.48
94.82
63.20
35.54
9.79
-15.36
-39.42
-60.34
-75.89
-85.22
-89.46
-91.44
-95.95
-107.80
-130.84
-167.36
-217.99
-282.01
-357.33
-439.89
-514.63
-563.82
-571.98
-533.77
-457.48
-361.12
-264.03
-179.77
-113.52
-63.44
-25.76
2.57
22.58
34.35
38.73
38.09
35.66
33.90
33.66
33.06
29.19
19.44
3.45
-16.66
-36.42
-50.89
-56.43
-51.85
-39.09
-21.69
-3.51
12.75
26.53
39.06
52.23
67.35
84.43
101.93
117.92
130.65
139.37
144.73
148.58
153.54
162.65
179.32
203.88
236.04
272.85
308.09
333.32
340.33
324.25
285.52
229.98
166.46
103.75
47.53
-0.49
-41.41
-77.22
-109.67
-140.28
-171.00
-204.48
-242.49
-284.42
-326.00
-360.00
-378.88
-378.21
-359.14
-328.29
-295.15
-268.10
-251.63
-245.51
-246.10
-248.75
-249.88
-247.75
-242.18
-233.53
-221.90
-206.95
-188.17
-165.09
-137.70
-106.56
-72.63
-37.10
-1.12
34.63
69.96
105.04
140.13
175.41
211.18
247.90
286.05
325.34
363.92
397.71
421.07
428.37
416.27
385.21
339.41
285.60
231.37
183.62
147.35
124.97
116.26
118.64
128.11
140.44
152.14
160.71
164.13
160.26
146.91
122.91
89.27
49.82
9.98
-25.59
-55.20
-80.50
-104.51
-128.88
-152.08
-170.31
-180.05
-180.70
-175.26
-168.57
-164.13
-161.55
-156.57
-143.61
-119.32
-84.93
-45.93
-9.41
19.42
39.55
54.03
67.81
84.77
105.86
128.85
149.86
165.65
175.32
180.88
186.47
196.53
213.78
237.55
263.31
283.56
290.01
276.16
239.65
183.34
115.17
46.40
-11.39
-49.52
-65.16
-62.34
-50.64
-41.56
-43.93
-60.13
-84.76
-106.91
-115.25
-103.59
-74.40
-38.42
-10.43
-3.19
-21.98
-62.54
-113.19
-159.99
-192.28
-206.14
-204.20
-192.47
-176.47
-158.83
-139.35
-117.38
-94.23
-74.39
-64.10
-68.40
-88.06
-118.20
-149.89
-173.76
-183.93
-180.30
-167.75
-153.14
-141.41
-133.30
-125.65
-114.13
-96.41
-73.61
-49.54
-28.27
-11.83
0.42
10.83
21.72
34.10
47.40
60.06
70.24
76.31
77.20
72.76
64.38
55.34
50.53
55.16
72.73
103.25
142.50
182.80
215.11
231.68
228.43
205.98
169.34
126.21
84.41
49.71
24.50
7.90
-2.95
-11.31
-19.55
-28.73
-38.79
-48.94
-57.94
-64.09
-65.37
-59.71
-45.92
-24.53
1.93
29.47
53.96
72.41
83.77
88.82
89.47
87.77
85.31
82.99
81.05
79.31
77.33
74.60
70.72
65.59
59.55
53.21
47.30
42.33
38.35
34.95
31.47
27.28
22.12
16.22
10.27
5.12
1.47
-0.41
-0.80
-0.35
0.15
0.10
-0.80
-2.55
-4.99
-7.90
-11.16
-14.60
-18.02
-21.07
-23.27
-24.06
-22.94
-19.74
-14.79
-9.09
-4.11
-1.30
-1.53
-4.58
-9.32
-14.20
-18.18
-21.44
-25.42
-32.34
-44.14
-61.61
-83.95
-109.04
-134.09
-156.37
-173.68
-184.49
-188.19
-185.21
-177.36
-167.66
-159.45
-154.89
-153.76
-153.32
-149.79
-140.74
-127.07
-113.45
-106.87
-113.82
-137.71
-177.18
-226.25
-275.50
-314.10
-332.05
-322.13
-281.15
-210.31
-114.79
-2.89
115.04
227.70
324.12
395.14
434.91
442.32
421.27
379.66
327.22
273.02
223.55
182.04
149.20
124.39
106.83
96.24
92.48
95.02
102.30
111.56
119.47
123.12
121.31
114.75
105.46
95.39
85.24
74.17
60.58
43.46
23.50
3.31
-13.24
-22.33
-21.48
-10.38
9.10
33.59
59.50
83.89
105.15
122.97
137.78
150.08
160.03
167.23
170.81
169.95
163.83
152.25
136.37
119.34
106.04
101.79
109.97
129.92
156.54
181.02
193.99
189.34
166.62
131.27
92.03
57.29
32.17
17.97
11.89
8.61
2.66
-9.24
-26.81
-46.22
-61.23
-65.23
-53.25
-25.52
11.92
48.99
75.36
84.44
75.30
52.10
16.99
-23.74
-62.51
-92.57
-109.83
-113.08
-102.57
-79.09
-45.68
-8.21
25.57
46.69
47.62
24.50
-21.54
-83.29
-148.96
-204.89
-239.03
-244.39
-222.24
-182.10
-138.29
-104.23
-87.21
-86.50
-95.15
-104.20
-107.85
-105.39
-100.42
-97.79
-100.46
-108.20
-118.77
-129.62
-139.25
-148.91
-160.29
-174.12
-189.21
-202.63
-211.01
-212.18
-205.98
-194.24
-182.20
-175.49
-178.84
-194.90
-223.73
-264.03
-314.32
-374.08
-431.69
-477.65
-503.67
-504.13
-476.67
-422.06
-345.30
-255.67
-165.45
-86.39
-28.01
6.76
21.52
22.24
17.87
14.64
15.48
21.04
31.60
46.10
63.92
84.61
107.86
133.49
160.68
188.62
214.32
236.22
253.21
265.69
275.13
283.43
292.39
303.10
316.47
333.25
354.03
377.08
397.78
408.66
401.41
370.11
314.37
240.48
159.65
83.73
20.37
-28.75
-66.60
-97.14
-122.34
-141.30
-152.71
-157.32
-159.69
-166.34
-181.56
-203.87
-225.48
-236.00
-226.65
-194.92
-144.61
-84.73
-25.68
24.70
63.12
90.81
111.31
130.18
152.34
182.01
220.35
265.55
314.00
361.48
404.29
438.68
463.47
468.65
448.58
402.33
334.67
255.11
174.07
106.72
54.26
13.69
-18.39
-42.13
-55.47
-57.02
-44.58
-18.17
18.39
55.92
83.83
92.28
76.76
39.24
-12.33
-65.73
-108.72
-132.81
-136.48
-123.45
-101.87
-80.82
-68.41
-70.62
-89.65
-124.31
-170.93
-225.30
-282.32
-337.27
-385.37
-417.51
-426.19
-406.87
-360.05
-291.64
-211.84
-130.65
-55.27
11.31
69.80
120.81
163.90
197.29
219.02
226.51
218.89
197.54
166.33
131.00
95.56
62.03
30.60
0.31
-30.92
-62.96
-96.05
-130.81
-166.72
-204.18
-242.44
-278.44
-302.29
-305.78
-285.16
-242.96
-193.75
-144.75
-100.22
-63.66
-37.14
-25.15
-32.62
-61.44
-107.89
-162.18
-209.72
-238.01
-240.19
-216.63
-174.53
-123.28
-75.57
-43.04
-32.16
-41.63
-65.86
-97.90
-132.03
-164.89
-195.44
-222.62
-244.27
-257.67
-260.20
-251.65
-233.74
-209.19
-180.23
-148.58
-115.21
-80.33
-44.04
-6.61
30.43
64.67
93.62
115.65
130.48
139.34
144.83
150.17
158.62
172.17
191.45
215.89
244.17
274.99
307.59
342.08
378.90
417.87
457.12
492.51
517.73
525.62
510.35
469.57
405.88
326.62
242.37
164.56
103.25
65.40
53.77
66.17
95.11
128.59
152.28
153.70
126.69
74.11
7.08
-59.54
-112.84
-146.89
-163.66
-170.22
-173.82
-177.85
-180.44
-176.08
-158.97
-126.33
-79.81
-24.99
30.70
80.33
119.47
146.72
163.43
172.65
178.02
183.15
190.95
203.04
218.77
234.54
243.78
238.36
211.59
161.78
94.60
22.87
-37.58
-74.20
-83.12
-71.13
-52.28
-40.69
-43.42
-57.50
-72.73
-78.25
-68.73
-46.94
-21.05
0.43
12.78
15.61
10.30
-3.50
-29.23
-71.36
-131.56
-205.41
-282.38
-349.06
-394.27
-412.97
-407.35
-384.78
-353.69
-319.86
-285.19
-248.62
-209.02
-167.72
-128.62
-96.45
-73.95
-60.07
-50.06
-37.37
-16.20
16.71
61.38
114.64
170.82
222.72
262.58
283.44
280.81
254.09
207.13
147.42
84.19
26.02
-20.96
-53.89
-72.93
-80.35
-79.53
-74.28
-68.46
-65.53
-68.04
-76.90
-90.74
-105.77
-116.62
-118.12
-107.49
-85.75
-57.60
-29.67
-7.91
4.73
9.02
8.40
6.76
6.35
6.93
6.48
2.89
-4.53
-14.47
-24.28
-31.26
-33.82
-31.99
-26.97
-20.39
-13.58
-7.20
-1.44
3.62
7.83
11.08
13.63
16.37
20.71
28.12
39.53
54.84
72.84
91.54
108.69
122.36
131.40
135.69
135.99
133.61
129.90
125.87
121.96
118.09
113.96
109.33
104.15
98.55
92.71
86.77
80.82
74.87
68.93
62.91
56.70
50.13
43.19
36.08
29.14
22.76
17.08
12.01
7.23
2.45
-2.44
-7.25
-11.61
-15.17
-17.77
-19.56
-20.86
-22.06
-23.43
-25.00
-26.40
-27.04
-26.19
-23.24
-18.02
-10.67
-1.87
7.30
15.75
22.72
28.03
32.13
35.82
39.80
44.56
49.52
52.91
52.38
46.12
34.15
18.96
5.20
-2.02
1.46
16.44
40.24
68.21
96.21
122.43
147.32
171.74
194.74
213.28
222.22
216.98
195.87
161.09
117.76
71.69
27.82
-14.50
-52.24
-78.53
-85.04
-67.90
-33.08
3.96
25.25
19.14
-14.48
-64.14
-114.27
-153.05
-176.92
-189.58
-196.90
-201.46
-200.81
-189.87
-164.49
-125.63
-80.05
-37.22
-5.71
9.90
10.42
0.93
-12.57
-25.38
-36.17
-46.72
-59.96
-77.60
-99.16
-121.25
-139.42
-150.68
-154.41
-153.15
-151.63
-155.03
-166.92
-189.01
-218.82
-248.56
-269.30
-272.84
-254.35
-213.93
-156.16
-88.33
-20.21
40.60
88.94
121.98
139.99
146.21
146.41
147.83
157.02
175.13
201.21
232.01
263.73
294.18
323.28
351.79
374.05
393.87
404.05
399.31
377.79
341.94
298.33
255.48
217.84
190.22
177.67
175.28
176.70
177.36
175.46
172.71
173.67
183.64
205.93
238.85
272.57
294.94
295.00
267.29
214.25
145.08
71.87
5.05
-49.22
-90.51
-119.30
-135.50
-138.49
-128.18
-106.72
-79.27
-53.18
-35.77
-32.50
-43.05
-61.51
-79.09
-88.14
-85.95
-75.72
-65.30
-62.68
-73.71
-98.15
-130.55
-163.50
-190.95
-210.33
-221.39
-226.44
-227.20
-227.13
-228.44
-232.22
-238.57
-246.54
-255.06
-261.63
-266.55
-270.39
-278.71
-296.53
-326.99
-370.41
-424.05
-483.89
-543.37
-601.17
-657.25
-718.49
-790.84
-877.26
-976.24
-1081.27
-1183.59
-1271.04
-1338.75
-1340.50
-1244.67
-1041.08
-750.51
-418.30
-93.44
163.64
350.03
475.39
551.66
584.01
578.37
547.24
503.60
461.26
429.95
415.97
415.09
421.25
425.43
422.55
411.86
395.45
378.03
363.82
357.17
357.68
364.90
375.01
384.04
388.83
388.24
385.18
384.23
389.40
399.85
412.02
418.49
412.32
390.31
348.42
290.35
232.92
185.55
147.30
116.55
92.09
74.92
67.56
71.62
84.00
97.61
102.08
89.93
60.97
21.25
-20.43
-57.20
-85.97
-106.50
-120.61
-129.29
-130.24
-119.04
-92.11
-49.19
5.56
64.60
117.97
154.50
166.25
153.38
124.61
93.49
71.80
64.33
69.09
79.33
88.20
92.12
92.75
92.30
91.64
89.08
81.00
64.80
38.68
1.84
-44.41
-97.03
-152.84
-207.68
-255.67
-293.93
-314.14
-308.68
-275.69
-221.41
-158.94
-103.90
-68.62
-57.31
-68.57
-94.19
-123.92
-148.39
-160.69
-156.93
-136.54
-98.57
-48.94
0.98
39.81
60.02
60.70
46.55
24.60
0.86
-20.65
-38.76
-53.63
-65.10
-73.46
-79.62
-85.14
-91.43
-99.28
-108.14
-117.04
-124.63
-129.30
-130.99
-129.66
-126.23
-122.07
-118.47
-115.96
-114.85
-114.96
-115.68
-116.54
-117.35
-118.44
-120.30
-123.29
-127.19
-131.72
-136.27
-140.13
-142.61
-143.02
-140.73
-134.87
-126.31
-115.01
-100.87
-83.91
-64.47
-43.27
-21.26
0.48
20.98
39.61
56.38
71.34
84.40
95.28
103.68
109.60
113.38
115.97
118.63
122.84
129.41
138.22
148.25
158.14
166.74
173.43
178.42
182.42
186.41
191.19
197.40
205.51
215.52
226.46
235.67
238.91
231.34
209.71
174.27
129.84
84.78
48.40
27.89
26.28
42.29
71.90
110.59
154.63
200.88
245.87
284.98
312.97
325.61
321.84
304.75
280.74
256.85
237.57
222.84
208.44
188.44
158.38
117.60
69.46
19.52
-27.32
-68.77
-105.19
-138.04
-167.48
-190.91
-203.31
-199.32
-176.18
-135.73
-84.35
-30.86
16.47
52.34
74.88
84.10
80.03
61.75
28.42
-18.33
-72.58
-124.30
-162.30
-178.45
-171.08
-145.83
-113.11
-83.53
-63.83
-55.01
-53.46
-53.82
-52.11
-47.56
-42.15
-38.75
-39.00
-42.19
-45.72
-46.76
-43.86
-37.57
-29.71
-21.87
-14.30
-5.74
5.36
19.10
33.05
42.48
42.13
28.59
2.22
-32.48
-68.16
-97.01
-113.34
-115.21
-104.62
-86.36
-65.96
-47.82
-34.18
-25.07
-19.19
-14.89
-11.04
-7.25
-3.87
-1.56
-0.94
-2.34
-5.59
-9.87
-13.71
-15.24
-12.90
-6.11
4.24
15.89
25.91
31.73
31.88
26.22
15.58
1.25
-15.53
-33.59
-51.72
-68.50
-82.33
-91.77
-95.95
-94.76
-88.81
-79.18
-66.97
-53.14
-38.45
-23.69
-9.87
1.87
10.59
15.98
18.70
20.24
22.52
27.08
34.53
44.17
54.34
63.02
68.59
70.44
69.15
66.19
63.40
62.38
63.93
67.90
73.28
78.61
82.44
83.73
82.06
77.60
71.00
63.24
55.47
48.87
44.46
42.84
43.82
46.34
48.69
49.06
46.22
40.03
31.53
22.51
14.84
9.74
7.36
6.85
6.79
5.81
3.06
-1.38
-6.56
-11.01
-13.31
-12.76
-9.67
-5.34
-1.33
0.93
0.91
-0.83
-2.85
-3.47
-1.48
3.26
9.69
16.46
21.82
24.78
25.53
25.57
27.39
33.67
46.27
65.30
89.58
115.51
139.07
157.10
168.62
175.26
180.19
186.18
193.53
200.40
202.04
194.21
174.64
144.03
105.90
65.87
30.93
2.77
-13.79
-14.85
0.65
27.00
52.26
63.36
52.55
20.91
-23.10
-62.97
-92.41
-111.08
-122.31
-129.71
-134.71
-136.24
-132.49
-123.05
-109.26
-96.72
-89.71
-90.27
-97.32
-107.06
-114.63
-116.35
-111.41
-101.42
-90.43
-81.45
-75.77
-72.66
-70.07
-66.01
-59.71
-52.05
-44.70
-39.75
-37.83
-38.35
-39.99
-41.42
-41.88
-41.44
-40.77
-40.55
-41.28
-42.51
-43.26
-42.50
-39.58
-34.52
-28.11
-21.58
-16.11
-12.54
-10.94
-10.85
-11.63
-12.76
-14.08
-15.85
-18.63
-23.04
-29.53
-38.13
-48.28
-58.93
-68.92
-77.41
-84.33
-90.32
-96.36
-103.21
-110.77
-117.96
-123.09
-124.69
-122.37
-117.19
-110.97
-105.25
-100.60
-96.25
-90.49
-81.60
-68.86
-52.68
-34.41
-14.99
5.53
27.51
51.02
75.49
100.30
125.47
152.73
184.25
221.40
262.40
300.58
325.67
327.10
298.79
241.55
163.67
77.32
-4.13
-66.44
-99.24
-99.38
-72.14
-27.46
20.18
62.10
91.99
105.45
101.05
81.09
53.19
27.54
14.53
19.08
38.04
59.67
69.19
55.89
17.70
-37.22
-95.80
-139.81
-154.92
-135.24
-85.80
-18.47
54.66
120.45
177.30
225.02
262.29
285.73
292.33
281.68
256.08
220.82
181.88
144.67
110.96
79.86
48.56
14.31
-24.30
-66.35
-108.67
-147.24
-178.30
-200.77
-215.65
-225.52
-233.19
-240.61
-248.07
-254.09
-256.65
-253.97
-246.56
-237.01
-229.45
-228.60
-238.70
-262.67
-301.41
-353.29
-413.57
-474.91
-528.18
-564.38
-576.86
-563.01
-524.69
-467.01
-396.39
-318.71
-238.53
-159.10
-82.97
-12.62
49.44
100.95
140.36
167.54
184.34
194.52
202.89
213.59
228.22
245.14
260.30
269.16
269.62
263.76
257.17
256.10
264.03
279.61
297.12
309.19
309.54
295.63
269.23
235.01
198.25
162.94
131.11
103.61
80.72
61.74
45.03
28.13
8.48
-15.26
-42.04
-68.03
-87.62
-92.85
-79.72
-51.71
-18.88
7.63
21.76
24.21
19.86
13.89
9.36
6.16
2.81
-1.56
-6.48
-10.59
-12.78
-12.83
-11.26
-8.89
-6.90
-6.14
-6.76
-8.18
-9.54
-9.98
-8.96
-6.51
-2.16
4.71
15.17
30.40
50.21
71.89
90.02
97.84
90.12
66.22
31.07
-6.23
-34.59
-46.59
-41.30
-23.65
-1.26
19.41
35.29
46.53
54.53
59.57
59.91
53.10
37.55
13.40
-17.83
-53.91
-92.93
-133.05
-169.92
-198.61
-213.71
-211.12
-190.47
-156.25
-116.76
-81.19
-56.21
-44.15
-43.55
-50.79
-62.20
-75.26
-88.45
-100.14
-108.57
-110.96
-105.10
-90.59
-68.70
-41.53
-11.27
20.63
52.95
84.85
115.63
144.08
168.34
186.46
197.17
200.37
197.32
190.24
181.72
173.62
166.44
159.55
151.75
142.42
132.25
122.99
116.38
112.92
111.17
108.30
100.97
86.94
65.52
37.18
3.29
-33.53
-68.71
-95.90
-108.64
-103.39
-82.18
-53.04
-27.15
-14.11
-17.71
-34.70
-57.25
-77.33
-90.53
-96.75
-98.19
-97.00
-93.64
-87.10
-76.76
-63.59
-50.10
-38.72
-29.93
-21.50
-9.77
7.99
30.65
53.10
68.55
72.08
63.68
48.56
34.51
27.87
30.76
40.70
52.94
63.14
69.24
71.24
69.72
64.79
55.98
43.66
29.95
18.03
11.02
9.76
12.04
13.21
8.41
-4.97
-25.86
-50.21
-72.97
-89.76
-98.89
-101.38
-99.91
-97.10
-93.81
-88.72
-79.24
-63.42
-41.67
-17.73
2.60
13.88
13.78
4.14
-9.99
-23.09
-31.65
-35.19
-35.28
-33.52
-30.38
-25.11
-16.98
-6.66
3.76
11.65
15.08
13.33
7.11
-1.89
-11.71
-19.87
-24.02
-22.62
-15.60
-4.49
8.23
20.20
29.91
36.59
39.74
38.47
31.78
19.26
2.08
-16.96
-34.20
-46.63
-52.91
-53.66
-50.71
-46.02
-41.18
-37.38
-35.49
-36.13
-39.24
-43.56
-46.44
-44.66
-35.82
-19.68
1.42
23.31
41.65
53.45
57.83
55.60
48.26
37.14
23.28
7.83
-7.53
-20.72
-30.01
-34.74
-35.49
-33.55
-30.19
-26.10
-21.46
-16.39
-11.38
-7.50
-5.88
-6.97
-10.05
-13.18
-13.84
-9.71
0.56
17.01
38.30
62.05
85.32
105.21
119.58
127.52
129.53
127.18
122.53
117.44
113.06
109.71
107.11
104.71
102.08
99.01
95.45
91.45
87.01
82.13
76.83
71.23
65.57
60.16
55.11
50.16
44.71
38.04
29.75
20.05
9.82
0.19
-8.05
-14.94
-21.39
-28.72
-37.98
-49.40
-62.16
-74.74
-85.34
-92.49
-95.48
-94.54
-90.64
-85.24
-79.79
-75.33
-72.02
-68.87
-63.98
-55.33
-41.83
-24.04
-4.43
13.32
25.37
29.27
24.88
14.30
0.80
-12.28
-22.51
-28.94
-32.06
-33.62
-35.50
-38.59
-42.26
-44.79
-44.41
-40.65
-35.44
-31.19
-31.17
-38.26
-53.20
-73.38
-93.17
-105.50
-103.70
-83.20
-43.14
11.82
71.59
122.88
153.47
156.83
134.78
96.47
54.12
17.81
-7.90
-23.80
-33.10
-38.17
-39.33
-35.71
-27.25
-16.06
-6.13
-1.53
-4.18
-12.46
-21.97
-27.70
-26.15
-17.07
-3.39
9.72
17.18
15.47
3.89
-15.23
-36.65
-53.11
-57.35
-44.79
-16.70
20.53
56.03
79.41
84.81
73.68
54.11
36.94
31.06
38.82
58.82
85.01
110.63
129.34
136.20
129.07
109.74
84.48
60.59
49.44
58.32
89.21
135.86
186.02
226.20
246.59
243.53
215.55
169.27
109.10
45.43
-11.81
-56.26
-86.11
-103.07
-99.70
-96.53
-92.35
-84.34
-68.45
-45.25
-21.39
-6.69
-9.21
-31.40
-75.31
-133.32
-196.31
-255.35
-306.60
-351.22
-391.90
-429.97
-435.41
-394.84
-315.24
-222.33
-139.06
-76.43
-35.01
-9.56
7.30
22.27
34.16
42.35
46.27
47.19
46.38
44.55
42.52
41.65
43.48
44.89
43.81
39.46
32.87
25.27
17.37
9.74
3.33
-0.83
-6.44
-13.68
-21.98
-29.85
-35.75
-38.40
-36.72
-29.57
-16.20
4.71
29.58
55.14
78.89
98.88
113.83
123.04
127.41
127.53
123.26
113.86
98.79
77.93
51.65
21.42
-11.39
-45.25
-77.86
-105.37
-122.93
-125.75
-111.75
-83.20
-46.70
-11.11
16.04
31.14
35.28
32.38
26.90
21.39
16.18
10.54
4.04
-2.45
-7.13
-8.36
-5.76
-0.23
6.35
12.42
17.35
21.51
25.97
31.96
40.12
50.14
60.90
70.96
79.26
85.62
90.46
94.35
97.75
100.76
103.21
105.35
108.39
114.29
124.26
137.18
148.27
151.23
141.22
117.08
81.89
41.63
2.73
-29.66
-51.84
-61.42
-55.21
-30.32
12.69
66.73
118.61
153.40
160.35
137.09
88.30
24.29
-42.78
-102.07
-148.43
-182.35
-207.07
-226.07
-242.15
-259.87
-282.58
-311.15
-342.85
-371.69
-389.55
-388.51
-364.34
-306.97
-222.23
-128.55
-47.81
7.06
35.86
46.98
50.37
51.80
52.07
47.31
35.69
18.19
0.74
-10.05
-9.37
5.37
33.52
71.46
111.87
147.99
174.05
187.13
186.76
171.91
145.63
114.25
85.80
66.34
59.88
64.57
74.53
80.60
75.90
60.19
38.12
16.63
-7.07
-34.98
-71.03
-114.65
-159.51
-195.56
-213.24
-207.46
-181.21
-144.51
-109.25
-87.75
-86.43
-103.58
-131.38
-160.94
-185.58
-205.94
-224.93
-243.40
-260.04
-271.23
-273.27
-264.26
-245.19
-219.64
-192.64
-168.40
-148.85
-134.14
-122.61
-112.05
-100.86
-88.74
-76.55
-65.85
-57.50
-51.00
-44.79
-36.32
-22.66
-1.45
28.40
66.52
110.93
158.39
205.20
247.55
282.43
308.24
325.18
335.03
340.31
343.22
344.77
344.37
339.97
329.02
310.07
284.00
254.63
227.93
210.19
205.96
216.54
239.41
269.09
298.59
320.91
330.72
325.33
305.12
273.31
235.01
195.48
158.75
126.58
97.99
70.51
42.01
12.26
-16.75
-41.89
-60.95
-74.25
-84.58
-95.64
-109.15
-122.80
-130.83
-126.68
-107.05
-74.62
-37.72
-6.57
11.60
16.22
13.44
12.49
20.72
39.73
64.87
87.71
99.92
96.60
77.89
48.23
14.48
-16.33
-38.38
-47.90
-43.85
-28.33
-7.21
10.69
15.65
0.05
-37.95
-92.78
-151.62
-198.19
-218.54
-206.73
-167.84
-115.83
-67.50
-34.68
-19.57
-15.13
-10.66
1.27
20.18
38.23
44.93
32.97
1.71
-43.45
-94.42
-144.14
-188.22
-224.75
-252.83
-271.69
-280.62
-279.21
-267.85
-247.67
-220.22
-187.35
-150.90
-112.62
-73.83
-35.44
1.68
36.12
65.34
86.17
95.84
93.66
81.86
65.25
49.50
39.02
35.27
36.57
39.18
39.19
34.27
24.50
11.97
-0.19
-9.25
-13.94
-14.62
-12.95
-10.82
-9.74
-10.47
-13.35
-18.57
-26.01
-34.67
-41.98
-43.73
-35.34
-13.89
19.89
61.20
102.47
136.36
158.36
168.16
168.79
164.48
158.56
152.52
146.38
139.31
130.20
117.38
98.42
70.71
32.92
-13.32
-62.73
-107.56
-140.41
-157.10
-158.37
-149.23
-136.65
-126.66
-122.32
-123.32
-126.93
-129.61
-128.44
-121.92
-110.01
-93.70
-74.35
-53.11
-30.70
-7.60
15.56
37.79
57.80
74.53
87.89
98.76
108.62
118.56
128.62
137.59
143.71
145.61
143.11
137.36
130.29
123.66
118.44
114.47
110.78
106.35
100.75
94.41
88.43
83.96
81.67
81.62
83.21
85.37
86.80
86.17
82.31
74.53
62.93
48.50
32.98
17.97
4.13
-9.02
-22.63
-37.53
-53.36
-68.47
-80.56
-87.32
-87.96
-83.53
-76.33
-68.81
-62.41
-57.00
-51.27
-43.33
-30.62
-11.77
12.84
41.06
69.61
95.16
115.38
129.56
138.90
147.62
160.16
179.25
204.61
232.91
259.35
279.78
292.16
296.98
298.03
298.27
297.78
293.44
281.12
258.41
226.07
187.27
133.53
62.92
-19.27
-100.16
-165.02
-205.36
-223.14
-228.40
-233.14
-245.12
-262.71
-278.85
-286.21
-281.91
-268.80
-252.96
-239.50
-229.99
-222.56
-212.56
-197.25
-177.40
-156.62
-139.01
-127.13
-120.65
-117.02
-113.28
-106.42
-95.47
-81.63
-67.48
-55.73
-47.89
-43.59
-41.25
-39.02
-35.06
-28.64
-20.10
-10.47
-0.98
7.52
14.94
21.47
27.21
32.21
36.19
38.48
38.32
35.02
28.06
17.59
4.00
-11.91
-28.84
-45.11
-58.98
-68.94
-74.24
-75.12
-72.40
-67.79
-63.06
-59.35
-56.88
-55.20
-53.58
-51.47
-48.93
-46.13
-44.17
-44.31
-47.60
-54.56
-64.51
-74.97
-81.64
-79.15
-62.56
-30.82
12.53
60.39
104.46
138.19
158.98
168.14
165.55
156.29
144.55
131.93
118.48
103.89
88.51
73.53
59.76
47.85
38.61
31.99
27.58
24.57
21.01
13.32
-1.57
-24.92
-53.76
-81.81
-102.52
-111.46
-107.18
-90.67
-63.79
-27.32
18.53
73.45
133.98
193.05
239.64
264.84
266.09
246.69
215.16
175.19
129.84
81.61
34.34
-7.03
-38.26
-58.22
-70.00
-79.36
-92.84
-108.15
-120.90
-123.06
-105.72
-63.95
0.12
76.75
152.15
211.48
244.95
249.86
231.37
198.82
159.65
118.40
77.14
39.33
6.74
-18.47
-34.86
-40.84
-36.47
-27.67
-20.85
-19.56
-18.88
-15.46
-7.33
5.13
21.42
39.63
50.77
46.46
22.94
-11.27
-51.49
-96.31
-146.98
-203.06
-263.93
-336.90
-427.95
-537.23
-649.34
-754.14
-846.00
-922.34
-978.62
-965.44
-855.39
-656.04
-459.66
-297.31
-176.68
-83.51
-15.95
28.33
53.53
58.92
47.38
27.34
19.04
41.75
95.32
163.07
226.22
272.24
292.95
288.61
265.58
239.01
216.74
199.73
186.56
179.30
180.58
187.57
196.29
204.11
214.43
227.71
242.03
256.12
273.00
295.61
321.46
343.67
353.54
345.55
316.13
266.21
197.31
123.32
62.86
28.21
19.67
28.70
45.24
61.82
73.61
77.83
71.69
52.40
18.22
-29.68
-80.98
-120.40
-135.98
-125.83
-97.57
-62.85
-32.60
-13.29
-6.18
-7.77
-13.38
-20.14
-27.04
-33.21
-36.61
-35.25
-29.16
-21.94
-20.09
-29.28
-53.09
-90.05
-132.69
-169.52
-189.78
-183.75
-152.90
-105.70
-52.96
-3.81
37.14
69.50
95.06
115.26
128.95
132.90
124.92
104.62
72.98
32.01
-15.82
-66.05
-113.40
-151.69
-175.34
-180.39
-166.92
-140.02
-108.13
-79.97
-61.36
-54.17
-56.61
-65.53
-78.05
-92.37
-107.50
-122.01
-134.28
-141.21
-140.72
-132.11
-116.45
-95.67
-71.68
-45.88
-18.91
8.96
37.34
64.67
88.90
107.35
117.55
118.12
108.91
91.13
67.04
39.28
10.13
-18.49
-45.38
-69.90
-91.64
-110.17
-124.95
-135.20
-140.02
-141.01
-138.98
-134.90
-129.89
-125.07
-121.50
-119.93
-120.63
-123.53
-128.16
-133.25
-137.44
-139.50
-138.34
-133.35
-124.23
-110.85
-93.43
-72.27
-47.39
-19.19
11.39
42.70
72.50
98.31
118.21
131.05
136.74
136.46
131.91
124.81
116.46
107.61
98.49
88.99
79.18
70.17
64.60
66.30
79.09
104.94
142.76
188.51
236.89
283.37
325.50
362.41
393.62
417.94
433.33
437.53
428.82
406.10
368.28
314.19
243.76
160.23
71.95
-8.53
-68.57
-100.72
-106.31
-94.94
-80.19
-73.24
-78.13
-91.07
-103.44
-106.60
-96.14
-73.12
-42.85
-11.96
14.22
32.79
42.88
44.40
37.15
20.63
-4.93
-37.69
-73.83
-108.33
-136.46
-155.23
-163.95
-163.86
-157.28
-146.65
-134.30
-122.45
-112.97
-107.03
-104.48
-103.53
-101.10
-93.80
-79.08
-56.06
-25.61
10.18
48.71
87.48
124.13
156.39
182.04
199.06
206.02
202.41
188.93
167.49
140.93
112.47
84.91
60.04
38.28
18.81
0.12
-19.06
-39.00
-58.60
-75.73
-88.11
-94.28
-94.18
-89.05
-80.80
-71.28
-61.74
-52.67
-43.96
-35.10
-25.48
-14.68
-2.75
9.61
21.21
30.82
37.72
42.02
44.60
46.63
48.88
51.39
53.60
54.66
53.95
51.44
47.71
43.74
40.73
39.68
41.12
44.85
49.84
54.56
57.56
58.01
55.93
52.05
47.28
42.08
36.29
29.26
20.37
9.71
-1.99
-13.63
-24.34
-33.95
-43.09
-52.74
-63.74
-76.04
-88.07
-97.40
-101.47
-98.47
-87.98
-71.03
-49.78
-26.72
-3.93
18.39
40.95
64.82
90.80
119.04
148.97
179.22
207.99
232.91
253.32
269.16
281.19
290.74
299.43
308.46
317.91
326.55
331.39
330.77
323.61
309.97
291.22
269.47
246.77
224.12
201.62
166.24
110.68
34.15
-56.78
-150.28
-233.30
-294.82
-327.62
-328.91
-302.61
-257.84
-207.65
-165.86
-142.69
-141.69
-159.15
-188.85
-219.24
-241.40
-250.59
-246.67
-231.20
-205.64
-171.34
-130.79
-88.90
-51.61
-24.32
-9.38
-5.69
-9.69
-17.28
-25.83
-35.04
-46.91
-63.40
-85.80
-113.02
-142.10
-169.36
-192.25
-211.05
-224.68
-235.29
-245.39
-257.54
-273.35
-292.68
-312.91
-328.74
-333.87
-322.88
-293.99
-248.90
-192.86
-133.06
-75.91
-24.86
20.45
61.96
101.32
138.77
174.21
207.55
238.98
269.05
298.50
328.14
356.27
378.27
386.69
374.14
335.47
270.38
184.50
85.67
-9.15
-80.98
-117.70
-120.07
-98.71
-66.70
-32.99
-0.81
30.25
61.21
90.37
113.75
127.74
131.91
128.85
123.71
120.23
120.92
127.01
137.53
150.08
161.72
170.34
174.07
171.45
160.88
141.00
111.58
73.75
31.00
-11.16
-41.88
-52.50
-40.17
-10.46
25.13
54.45
69.70
70.33
61.91
52.13
45.84
43.42
40.26
31.82
17.11
-0.76
-16.75
-26.81
-29.50
-26.19
-19.26
-13.48
-11.33
-12.12
-12.79
-10.85
-6.46
-2.84
-5.18
-18.34
-49.81
-102.45
-173.36
-254.45
-336.69
-413.21
-480.76
-538.99
-588.70
-636.69
-686.55
-737.33
-783.79
-821.18
-848.17
-867.92
-886.44
-870.84
-804.38
-689.34
-548.34
-408.53
-287.52
-187.87
-102.83
-24.14
52.70
120.02
168.80
189.01
186.72
172.61
158.19
152.66
161.40
187.96
221.98
253.69
275.30
284.52
282.69
275.02
268.99
268.33
276.21
289.13
301.28
306.43
301.91
287.85
267.29
244.26
222.24
203.97
189.18
178.11
171.74
172.54
181.55
198.42
221.33
247.80
276.36
306.12
338.22
375.06
419.02
468.76
518.35
557.95
576.78
567.18
527.31
462.32
382.43
299.21
220.43
148.64
82.19
18.47
-43.17
-100.47
-148.77
-186.27
-209.25
-216.12
-209.05
-193.50
-175.03
-155.56
-134.33
-111.14
-87.57
-67.27
-56.04
-59.16
-79.68
-117.27
-169.29
-232.57
-301.46
-366.85
-417.08
-442.30
-437.97
-407.06
-358.56
-304.43
-255.82
-219.12
-195.08
-180.06
-171.34
-165.73
-162.18
-160.18
-158.33
-154.11
-143.57
-123.87
-94.67
-59.15
-22.27
10.94
36.60
54.08
65.57
76.19
90.91
112.42
139.82
169.33
196.13
216.50
229.44
236.41
241.85
250.32
265.00
286.93
315.46
348.72
383.81
416.87
432.74
418.46
367.80
286.21
189.73
97.45
23.24
-28.13
-59.23
-75.89
-81.65
-77.63
-63.89
-42.08
-16.63
7.74
25.33
32.82
30.01
19.98
6.44
-8.62
-25.98
-48.54
-80.06
-120.65
-168.17
-218.94
-267.15
-305.72
-327.38
-326.66
-302.03
-257.33
-201.43
-145.67
-100.00
-69.38
-53.26
-47.35
-46.77
-48.51
-51.97
-58.03
-67.08
-77.99
-88.18
-94.93
-96.76
-93.97
-88.95
-83.48
-78.71
-74.59
-70.38
-65.32
-59.08
-52.15
-45.60
-40.59
-37.62
-36.34
-35.03
-31.67
-24.74
-13.66
0.96
17.47
33.71
47.68
57.86
64.33
67.76
69.27
70.18
71.86
75.67
82.99
95.31
108.92
122.58
135.52
147.03
156.30
162.53
165.00
163.42
158.02
149.36
139.02
128.13
117.29
106.56
95.69
84.44
72.90
61.62
51.42
43.66
38.76
36.14
34.34
31.70
27.04
20.58
13.94
9.22
7.89
9.30
11.01
9.78
3.11
-10.18
-29.94
-55.29
-84.44
-113.78
-137.74
-149.31
-142.88
-117.17
-77.06
-32.20
6.79
32.99
45.97
50.50
53.37
58.79
66.79
73.98
76.37
71.87
61.43
48.95
36.80
26.66
19.10
14.05
11.16
9.95
9.03
5.59
-3.64
-21.01
-45.95
-74.65
-101.30
-120.87
-131.14
-132.49
-128.62
-122.35
-114.24
-102.68
-86.20
-65.09
-41.94
-20.49
-3.35
8.56
16.44
21.59
24.32
23.73
19.35
12.38
5.51
1.68
2.35
7.01
13.72
20.59
26.34
30.11
30.63
25.88
14.09
-4.68
-26.97
-46.74
-57.75
-56.29
-42.99
-22.21
0.14
19.08
31.65
37.47
37.84
35.08
32.14
31.82
35.96
44.59
55.87
66.83
74.97
79.30
80.63
81.16
83.14
87.80
95.05
103.99
113.50
122.87
131.32
137.95
141.62
140.91
134.54
121.51
100.96
71.38
33.13
-12.84
-65.68
-124.58
-188.05
-252.82
-313.37
-362.57
-393.94
-404.45
-397.02
-379.80
-362.67
-352.51
-349.71
-348.06
-338.26
-312.81
-269.81
-213.90
-153.59
-96.88
-48.25
-8.30
24.12
49.30
65.79
71.62
66.90
55.88
46.64
48.20
66.27
100.38
143.81
186.62
220.19
240.64
249.53
251.86
252.68
254.41
256.14
254.88
247.58
232.91
212.02
188.08
165.17
146.84
134.88
128.85
126.30
123.92
118.91
110.24
98.82
86.76
76.07
67.49
60.35
53.18
44.64
34.14
22.02
9.21
-3.32
-15.00
-25.92
-36.66
-47.99
-60.44
-74.07
-88.09
-100.81
-109.94
-113.47
-110.53
-101.95
-90.14
-78.38
-69.89
-66.46
-67.47
-69.99
-70.20
-65.11
-53.60
-36.62
-16.67
2.06
15.22
19.74
15.01
3.13
-11.50
-23.04
-25.51
-14.88
7.81
37.13
65.66
87.03
97.52
96.87
87.56
73.63
58.91
43.21
23.09
-5.85
-45.78
-95.27
-149.62
-202.24
-246.60
-268.21
-256.78
-213.89
-154.47
-96.76
-52.06
-22.75
-5.68
4.28
11.66
17.62
21.15
20.67
16.14
9.50
3.63
1.54
5.42
15.54
28.54
39.97
46.18
46.45
43.31
40.35
40.25
44.16
51.68
60.90
70.20
78.75
86.25
92.14
94.29
90.25
79.48
65.09
53.07
49.64
57.14
72.56
88.18
94.98
86.77
62.37
26.23
-13.87
-47.64
-66.77
-68.32
-54.30
-29.08
3.03
37.88
72.25
103.32
129.88
148.84
157.14
153.20
137.93
114.99
88.94
64.21
44.67
32.56
27.48
27.21
28.60
28.63
32.19
41.72
57.85
80.17
107.20
135.54
159.96
174.34
173.60
154.69
115.64
54.17
-28.24
-123.99
-220.13
-301.70
-356.03
-376.37
-364.11
-328.76
-287.56
-254.03
-231.98
-216.65
-201.01
-181.16
-157.81
-135.05
-117.75
-114.57
-129.06
-157.68
-193.37
-231.30
-270.63
-312.63
-358.14
-368.21
-323.23
-235.53
-137.01
-51.98
11.07
53.23
79.07
94.04
103.16
104.80
98.13
86.29
74.76
67.01
62.92
60.19
56.58
51.77
43.86
35.01
31.86
41.57
65.90
99.60
133.20
158.04
169.29
164.53
145.87
118.95
90.51
65.73
47.53
38.21
39.36
50.24
65.59
78.30
82.49
75.96
60.02
38.89
18.18
3.35
-1.55
4.85
22.27
46.41
71.20
89.77
96.79
90.43
73.28
51.15
30.37
15.31
6.68
2.86
1.16
-0.15
-1.37
-1.78
0.16
5.44
14.31
26.48
41.67
59.31
77.69
92.73
98.78
90.26
64.71
25.40
-18.82
-56.23
-77.31
-78.93
-65.83
-47.23
-32.15
-25.37
-26.25
-30.91
-35.54
-38.82
-42.21
-48.95
-61.25
-79.50
-103.03
-131.38
-165.40
-206.51
-255.41
-305.85
-350.38
-380.85
-391.91
-383.28
-360.09
-331.07
-304.75
-286.39
-276.61
-272.87
-270.83
-266.57
-257.51
-242.45
-221.00
-193.09
-158.84
-118.75
-74.38
-27.68
19.01
63.46
103.85
138.99
168.45
192.63
212.68
229.84
245.55
261.07
277.35
294.97
314.20
335.09
357.52
381.23
405.71
430.73
456.82
485.47
518.53
556.61
597.25
634.03
657.60
658.61
631.45
576.89
502.07
417.86
334.73
259.44
193.82
135.95
82.70
31.91
-16.66
-61.86
-102.12
-136.16
-162.85
-180.70
-188.17
-184.63
-171.83
-154.72
-140.85
-137.75
-150.22
-178.40
-217.66
-260.96
-302.06
-338.12
-370.13
-400.96
-432.37
-462.83
-487.67
-501.45
-501.21
-488.52
-469.05
-450.18
-438.04
-434.50
-436.98
-440.60
-440.97
-435.90
-425.51
-410.66
-391.77
-368.51
-339.76
-304.84
-264.59
-221.64
-179.69
-142.13
-110.46
-84.38
-62.92
-43.93
-24.95
-4.47
17.69
40.94
64.55
89.54
117.15
146.11
175.94
206.94
238.46
268.99
296.80
320.50
342.22
363.88
381.89
394.76
403.69
409.57
412.90
414.72
416.44
424.39
443.27
468.15
496.87
530.88
569.98
612.12
655.29
697.18
741.38
788.79
827.23
848.23
849.52
829.95
790.77
737.48
638.65
481.99
327.91
201.89
95.09
6.19
-66.70
-128.00
-183.14
-238.86
-294.84
-348.71
-413.53
-486.12
-551.66
-592.27
-607.87
-604.76
-591.08
-567.57
-535.36
-505.41
-485.82
-481.20
-494.68
-525.05
-563.10
-595.21
-605.19
-583.41
-533.81
-464.91
-387.78
-315.95
-262.29
-234.23
-232.80
-250.92
-276.83
-299.10
-306.30
-290.41
-250.14
-189.90
-116.16
-35.00
49.15
132.67
211.65
283.44
346.72
400.67
444.35
476.12
492.76
489.81
462.91
410.20
334.63
244.42
151.90
71.16
14.75
-9.75
-1.57
33.43
84.53
139.44
187.59
222.28
241.40
246.27
239.67
224.45
203.04
177.79
151.04
125.36
102.85
84.58
70.22
57.82
44.56
27.22
3.13
-28.77
-66.65
-105.70
-139.56
-163.36
-176.38
-182.72
-189.21
-200.86
-217.12
-231.32
-234.36
-220.01
-188.99
-148.60
-108.26
-73.99
-45.25
-16.41
18.29
59.83
102.65
137.00
154.02
150.30
129.45
99.79
70.15
45.80
27.45
12.55
-2.12
-18.55
-37.39
-58.93
-83.90
-112.85
-144.88
-176.39
-201.72
-215.54
-215.71
-204.57
-187.83
-170.79
-154.75
-135.96
-107.47
-63.68
-4.21
65.02
133.60
190.76
229.27
247.25
247.36
234.06
210.95
178.96
137.00
83.62
19.84
-49.21
-114.56
-165.50
-193.06
-193.39
-169.55
-130.25
-86.80
-48.90
-21.90
-6.29
0.64
2.66
2.41
0.95
-1.73
-5.82
-10.82
-15.48
-18.28
-18.06
-14.70
-9.21
-3.21
1.88
5.46
7.92
9.95
11.59
11.57
7.27
-3.99
-23.34
-49.11
-76.86
-100.78
-115.92
-119.72
-112.03
-93.73
-65.06
-25.05
27.37
91.08
161.26
229.56
286.37
323.83
337.92
328.69
299.03
252.89
194.32
127.53
57.35
-10.90
-72.05
-122.22
-159.62
-184.65
-199.48
-207.17
-210.89
-213.17
-215.22
-216.71
-216.01
-211.15
-200.95
-185.95
-168.36
-151.01
-136.15
-124.38
-114.81
-105.81
-96.00
-84.88
-72.72
-60.00
-46.84
-32.97
-17.80
-0.93
17.62
37.49
58.06
78.73
99.00
118.45
136.71
153.47
168.44
181.41
192.24
200.78
206.95
210.69
212.09
211.43
209.00
204.90
198.83
190.34
178.98
164.78
148.35
130.84
113.64
97.62
82.62
67.36
50.11
29.46
5.26
-21.04
-46.76
-68.62
-84.20
-92.72
-95.13
-93.29
-89.00
-83.13
-75.37
-64.53
-48.54
-26.17
2.35
34.87
67.65
96.23
116.64
126.65
126.68
120.64
113.55
109.98
112.41
121.15
134.95
152.09
170.91
189.65
207.24
220.93
226.55
219.48
196.65
158.15
107.54
50.37
-15.43
-87.12
-158.03
-217.52
-254.40
-261.82
-240.76
-200.57
-156.19
-122.81
-108.61
-113.18
-128.58
-144.25
-152.41
-151.31
-144.52
-137.10
-132.12
-127.97
-121.30
-109.74
-93.78
-76.48
-61.66
-52.08
-48.08
-47.80
-47.53
-44.11
-35.95
-23.56
-9.10
4.52
14.70
19.99
20.33
17.31
12.76
8.06
3.75
-0.61
-5.94
-12.98
-21.38
-29.51
-34.61
-34.30
-28.10
-17.16
-3.04
13.57
33.00
55.74
80.31
102.24
114.80
111.50
90.00
54.08
12.38
-25.31
-51.50
-63.18
-61.66
-50.98
-36.43
-22.40
-12.52
-9.72
-16.28
-32.15
-54.09
-77.00
-91.39
-91.93
-77.17
-50.53
-18.84
8.81
24.42
23.29
5.56
-23.62
-55.16
-76.99
-79.48
-59.46
-24.06
12.35
35.03
36.09
18.55
-4.74
-16.16
-3.52
41.34
109.71
178.37
224.70
240.25
230.50
205.10
170.83
127.91
72.44
3.34
-73.98
-148.90
-210.88
-255.06
-283.99
-293.13
-283.42
-254.22
-203.28
-128.69
-32.23
77.45
185.04
272.90
327.55
342.33
320.97
274.19
215.41
156.88
106.60
68.07
41.58
26.08
17.77
12.84
6.84
-5.29
-28.16
-64.86
-114.94
-173.28
-229.91
-275.73
-303.10
-308.46
-292.78
-260.14
-215.02
-160.05
-96.28
-24.14
49.62
115.04
162.07
184.89
183.84
165.14
138.13
110.70
88.84
70.15
49.89
24.87
-4.61
-36.18
-67.80
-99.03
-132.77
-152.66
-149.91
-126.00
-92.38
-61.17
-38.49
-24.64
-16.97
-23.45
-39.36
-63.75
-94.91
-129.13
-161.18
-186.83
-205.57
-207.91
-193.22
-161.76
-119.67
-73.02
-26.69
15.92
51.63
76.64
87.22
78.78
56.78
24.43
-14.14
-54.22
-89.75
-113.24
-117.47
-98.10
-57.77
-3.52
51.98
97.03
124.94
135.77
134.53
127.61
119.74
112.16
105.04
97.12
88.35
79.90
73.29
69.23
67.10
65.45
62.34
57.22
50.23
42.57
35.73
30.77
27.89
26.32
24.85
22.25
18.13
12.67
6.72
1.28
-2.94
-5.83
-7.84
-9.75
-12.25
-15.67
-19.95
-24.84
-30.06
-35.49
-41.25
-47.64
-54.93
-63.14
-71.83
-80.15
-87.06
-92.03
-93.93
-92.07
-86.22
-76.51
-63.43
-47.69
-30.10
-11.55
7.04
24.89
41.32
55.79
67.90
77.30
83.54
86.17
84.69
78.59
67.65
51.97
32.00
8.80
-16.16
-40.91
-63.28
-81.06
-92.45
-95.81
-90.14
-75.29
-52.02
-22.88
9.24
41.12
71.37
97.51
117.85
131.40
137.97
137.72
131.18
119.05
102.14
81.34
57.62
32.62
8.12
-14.32
-34.01
-51.07
-66.43
-81.37
-97.00
-113.66
-130.16
-144.32
-153.77
-156.80
-153.01
-143.32
-129.40
-112.73
-95.42
-77.55
-57.82
-34.21
-4.78
31.44
73.68
118.96
162.74
199.64
225.39
238.32
239.82
234.27
227.66
226.24
233.98
250.72
271.30
287.18
289.25
271.57
234.15
182.51
125.16
69.93
21.25
-20.40
-56.54
-88.38
-115.30
-134.79
-144.27
-143.08
-133.55
-120.76
-110.84
-109.00
-118.05
-138.16
-167.15
-201.97
-239.59
-276.72
-309.43
-332.55
-340.72
-329.79
-299.08
-252.36
-197.49
-144.06
-100.42
-71.54
-57.63
-54.72
-56.11
-54.63
-44.51
-23.11
9.17
49.80
95.16
141.86
186.70
226.48
258.14
279.43
289.83
291.06
286.48
279.59
272.67
265.88
257.45
244.69
225.17
197.67
162.76
123.00
82.44
45.81
17.13
-1.23
-8.68
-5.76
6.72
27.74
55.73
87.72
119.36
145.95
164.15
173.21
174.68
170.79
162.29
147.37
122.30
83.26
28.56
-40.26
-118.43
-199.11
-274.87
-339.21
-387.69
-418.69
-433.48
-435.25
-427.70
-413.53
-393.87
-368.72
-338.29
-304.02
-268.74
-235.68
-206.97
-182.68
-160.78
-138.49
-113.75
-86.34
-57.99
-31.48
-9.09
8.72
23.55
38.42
56.28
78.54
104.55
131.98
157.96
180.38
198.48
212.70
223.84
232.27
237.75
239.71
237.97
233.20
226.82
220.45
215.17
211.04
207.01
201.32
192.19
178.34
159.41
135.87
108.86
79.77
49.92
20.45
-7.72
-33.76
-56.91
-76.47
-91.86
-102.68
-108.62
-109.60
-105.88
-98.13
-87.50
-75.63
-64.31
-55.27
-49.76
-47.86
-48.77
-50.68
-51.09
-47.07
-36.07
-16.54
11.55
46.67
86.68
128.87
170.43
208.55
240.69
264.68
278.90
282.62
275.89
259.98
235.87
204.11
164.99
119.08
67.54
12.16
-44.53
-101.65
-153.52
-191.49
-207.52
-199.23
-172.71
-140.09
-113.65
-100.15
-98.66
-101.98
-102.31
-95.60
-82.71
-67.74
-54.71
-45.27
-38.46
-32.54
-25.85
-19.52
-16.73
-20.40
-31.83
-49.82
-71.23
-92.28
-109.89
-122.22
-127.26
-125.76
-119.36
-109.55
-97.06
-81.80
-63.47
-42.17
-18.44
6.55
30.99
53.52
73.20
89.42
101.72
110.09
113.87
111.99
103.77
89.19
69.48
46.85
23.91
3.40
-11.99
-19.89
-19.36
-10.25
6.61
29.49
55.45
80.45
100.44
112.44
115.39
108.94
94.43
74.32
50.72
25.93
1.09
-23.19
-46.12
-66.44
-84.91
-103.19
-123.39
-147.75
-177.53
-212.29
-249.65
-286.55
-309.58
-312.92
-299.07
-275.33
-246.54
-211.61
-166.39
-109.42
-45.32
16.71
65.34
94.14
104.26
101.77
91.38
74.06
47.43
9.61
-36.99
-85.55
-124.62
-141.76
-129.18
-87.36
-24.90
45.31
112.33
171.33
222.41
267.96
311.12
352.42
388.24
411.53
414.40
391.54
342.65
272.09
188.22
100.99
18.65
-54.03
-116.32
-171.20
-222.85
-273.40
-321.11
-360.06
-382.24
-381.73
-357.53
-314.05
-259.31
-201.64
-146.52
-95.28
-46.10
3.96
56.86
113.28
173.42
237.62
305.61
375.41
441.97
497.49
533.78
545.20
530.90
495.04
444.91
387.09
326.09
263.78
200.70
137.61
76.29
19.55
-29.55
-68.29
-96.63
-115.20
-125.08
-127.29
-122.97
-114.22
-104.31
-97.40
-97.87
-112.25
-144.69
-196.14
-262.89
-337.37
-409.99
-471.32
-514.16
-534.64
-536.50
-526.02
-510.85
-497.21
-489.54
-490.94
-504.03
-530.62
-546.93
-534.00
-480.58
-390.03
-276.98
-159.85
-54.01
31.03
92.35
133.30
154.79
163.31
162.73
155.98
145.56
135.29
129.43
131.53
143.49
163.12
187.82
213.51
237.90
259.71
278.41
292.21
298.06
289.19
262.07
221.24
176.45
141.79
120.66
112.06
114.45
126.05
147.89
181.58
226.92
273.19
305.81
310.37
280.95
222.28
146.74
68.88
-0.54
-56.98
-102.35
-140.23
-173.89
-203.53
-227.65
-244.85
-254.35
-257.87
-256.38
-251.20
-242.62
-230.51
-213.88
-192.18
-166.38
-138.46
-111.32
-87.76
-70.13
-59.22
-54.39
-53.47
-53.87
-56.25
-60.87
-68.38
-79.25
-93.78
-111.62
-131.80
-152.73
-172.90
-191.47
-207.79
-221.77
-233.39
-242.61
-248.95
-251.60
-249.48
-241.83
-228.55
-210.09
-187.75
-163.33
-138.76
-115.73
-95.33
-77.87
-63.08
-49.97
-36.80
-21.52
-2.19
22.27
51.50
83.82
116.85
148.37
177.04
202.44
224.18
241.31
252.06
254.21
246.45
229.51
206.39
181.69
160.32
145.81
139.66
141.40
148.93
159.41
170.12
178.79
184.08
185.48
183.15
177.72
169.93
160.56
150.40
140.70
133.15
130.29
135.44
152.05
182.50
226.42
279.63
334.20
379.98
406.92
408.18
381.95
331.94
266.59
196.87
133.98
86.82
60.29
53.70
61.18
73.48
80.83
76.44
58.55
30.75
-0.33
-27.52
-46.62
-57.57
-63.37
-68.15
-74.81
-84.24
-94.28
-101.46
-100.99
-89.43
-65.10
-28.04
20.15
76.75
136.93
196.39
250.69
298.42
339.45
374.85
406.36
435.20
461.44
481.88
494.25
496.63
490.87
479.57
465.27
450.29
436.09
424.13
414.55
410.50
393.87
350.76
272.18
159.10
24.36
-113.26
-223.42
-301.72
-351.52
-379.03
-388.36
-383.81
-373.08
-362.11
-357.11
-363.55
-386.25
-423.13
-467.09
-505.53
-525.49
-517.77
-479.98
-418.53
-346.91
-282.04
-235.42
-211.17
-204.62
-206.82
-209.23
-207.02
-200.54
-193.78
-191.60
-195.26
-203.11
-211.67
-218.59
-224.15
-230.66
-240.96
-256.03
-273.81
-288.37
-292.31
-279.27
-246.76
-197.36
-138.23
-79.39
-30.99
-0.41
10.22
4.45
-9.69
-22.71
-27.23
-20.67
-5.81
11.26
24.93
33.00
37.71
44.11
57.13
79.06
108.84
143.41
179.76
216.34
252.52
287.05
316.73
336.46
340.81
326.23
292.42
242.49
181.63
115.15
47.11
-20.28
-85.96
-149.12
-208.12
-260.34
-302.76
-332.71
-348.67
-350.58
-339.84
-319.05
-291.71
-261.67
-232.52
-207.01
-186.39
-170.09
-155.87
-140.65
-121.51
-96.84
-66.82
-33.40
0.41
31.58
57.99
78.99
95.24
108.17
119.18
129.23
138.57
147.06
154.41
160.33
164.49
166.61
166.57
164.58
161.50
158.40
156.30
155.61
156.08
156.96
157.40
156.71
154.18
148.99
139.98
126.26
107.85
86.36
64.77
46.26
32.88
24.51
18.97
13.05
4.25
-8.06
-22.41
-35.89
-45.52
-49.03
-45.37
-34.41
-16.83
5.95
31.62
57.11
79.19
95.22
104.32
107.39
106.90
105.95
107.07
111.44
118.43
126.35
132.91
136.62
137.15
135.58
134.34
135.93
141.70
150.65
159.46
162.92
156.17
136.24
103.86
63.42
21.34
-16.42
-46.67
-69.87
-91.22
-114.81
-142.03
-170.29
-194.20
-208.99
-213.17
-208.73
-199.41
-188.13
-175.35
-159.95
-140.92
-118.58
-95.24
-74.34
-58.92
-50.80
-49.50
-52.59
-56.74
-59.05
-57.53
-51.35
-40.52
-25.16
-5.58
18.08
45.70
76.59
109.07
140.83
168.89
189.96
201.61
202.24
191.52
170.76
142.56
110.51
78.74
51.51
32.77
25.90
32.72
52.86
84.25
123.39
166.21
208.30
245.82
275.98
297.22
308.92
310.42
301.61
282.86
255.70
222.22
185.12
146.94
109.13
77.83
55.59
42.66
37.44
37.74
41.17
45.76
49.68
50.80
46.51
32.78
5.77
-37.07
-95.63
-167.52
-248.05
-330.77
-407.35
-467.47
-500.74
-498.59
-457.54
-381.53
-282.10
-174.56
-73.04
13.34
82.41
136.54
179.46
213.38
238.13
252.21
255.21
248.70
235.54
218.86
200.48
180.93
160.35
139.20
118.77
101.37
88.86
81.12
76.37
71.05
60.85
41.67
10.51
-33.65
-89.19
-152.78
-221.66
-291.49
-356.54
-410.27
-446.71
-462.05
-455.40
-427.85
-383.68
-333.04
-284.85
-244.66
-214.00
-191.87
-177.41
-171.10
-173.15
-186.24
-219.83
-279.52
-364.57
-467.54
-577.55
-684.96
-783.43
-867.65
-938.10
-1006.69
-1083.19
-1171.51
-1267.66
-1361.85
-1443.15
-1502.42
-1531.47
-1469.29
-1287.62
-995.53
-639.77
-281.08
34.17
285.77
456.23
568.57
643.07
683.73
692.66
675.37
642.79
611.60
592.43
589.13
602.69
626.51
645.76
649.58
633.89
601.84
560.57
516.41
473.19
434.45
399.03
360.90
316.61
266.82
216.02
170.33
134.13
109.12
96.22
93.01
94.37
96.53
97.90
99.02
101.49
106.25
113.15
121.98
131.20
138.34
141.70
140.89
136.45
129.40
120.34
109.04
95.71
80.38
63.21
44.96
27.80
13.93
4.98
1.29
0.44
0.25
-1.37
-6.61
-16.62
-29.61
-42.97
-54.06
-61.13
-66.40
-70.58
-73.27
-73.84
-70.52
-58.51
-33.55
6.82
62.28
125.92
193.95
265.46
340.71
420.77
509.07
606.37
710.70
817.67
916.60
1002.54
1074.28
1130.90
1141.16
1080.88
938.19
721.60
494.15
286.63
113.24
-21.40
-128.22
-212.39
-273.48
-311.23
-326.92
-324.96
-317.00
-310.35
-308.03
-310.02
-312.66
-308.28
-289.78
-252.10
-200.15
-145.66
-97.99
-63.22
-43.97
-38.55
-41.73
-48.40
-54.84
-59.83
-66.15
-75.01
-85.90
-97.35
-106.95
-112.18
-111.90
-106.52
-98.05
-89.76
-83.53
-79.59
-77.14
-74.74
-71.04
-65.17
-56.58
-45.25
-32.33
-20.42
-13.78
-17.38
-34.56
-64.94
-103.59
-142.32
-172.95
-190.30
-194.13
-188.16
-177.48
-165.88
-154.76
-143.76
-132.55
-122.28
-115.15
-112.43
-112.69
-111.31
-102.52
-82.44
-51.51
-14.61
21.34
50.39
69.71
79.50
81.45
76.93
66.32
49.88
29.01
6.66
-13.44
-28.58
-37.54
-40.23
-36.95
-27.92
-13.65
4.32
22.95
38.05
45.38
42.24
28.69
8.23
-13.82
-30.85
-37.67
-31.65
-13.64
12.15
39.09
60.11
70.00
67.04
53.98
36.59
21.99
16.26
22.42
39.13
61.40
82.12
94.48
94.30
80.83
56.28
24.68
-9.70
-43.59
-74.92
-102.33
-124.87
-141.46
-151.34
-155.16
-154.90
-153.75
-154.73
-159.48
-167.44
-175.34
-177.52
-167.87
-142.00
-99.33
-44.29
14.76
67.49
104.47
120.02
114.53
93.29
64.69
37.09
16.14
3.44
-2.70
-5.48
-7.38
-8.00
-5.84
0.54
10.94
23.10
32.25
34.93
30.37
21.38
14.38
14.24
22.93
39.16
59.88
81.97
103.32
125.08
146.84
169.20
191.33
212.04
230.12
244.32
253.25
254.70
246.49
217.93
171.56
114.93
56.41
2.16
-44.86
-83.71
-115.15
-139.88
-158.62
-171.56
-180.38
-187.74
-195.96
-209.12
-224.58
-239.76
-252.62
-262.51
-269.71
-274.98
-278.91
-281.02
-280.62
-276.53
-268.57
-256.49
-231.91
-195.27
-150.84
-106.21
-69.34
-46.17
-36.55
-34.36
-29.28
-12.83
16.78
55.39
94.18
125.52
145.52
156.13
162.37
169.54
180.79
196.05
215.26
230.01
236.97
235.07
225.72
211.50
195.92
183.22
177.00
180.18
191.78
208.17
222.57
227.48
216.68
186.53
137.37
73.14
0.68
-74.16
-145.96
-211.98
-263.41
-291.06
-292.67
-272.68
-240.93
-199.52
-148.84
-88.86
-20.08
53.09
124.13
184.52
226.70
246.94
246.64
229.84
202.62
171.70
132.32
88.67
48.86
18.97
0.01
-10.99
-19.39
-30.14
-46.30
-67.01
-90.93
-115.42
-137.02
-151.45
-155.08
-147.05
-128.89
-103.07
-70.28
-31.00
11.31
47.63
68.73
72.40
65.05
56.98
55.03
58.25
59.10
48.43
22.00
-15.58
-52.99
-79.20
-89.65
-87.91
-81.94
-78.66
-80.29
-84.17
-85.51
-80.60
-69.06
-53.65
-38.42
-25.85
-16.32
-8.65
-0.68
9.55
23.52
41.39
61.38
79.57
91.15
92.13
81.63
64.84
49.43
44.23
54.53
79.10
110.35
137.33
150.04
142.41
114.42
70.41
17.22
-37.90
-88.45
-128.98
-155.42
-163.35
-154.95
-134.31
-106.56
-76.29
-47.01
-21.37
-1.03
13.48
22.63
27.47
30.33
32.83
35.85
39.30
42.21
43.57
43.00
41.15
39.09
38.69
41.02
46.40
54.11
62.56
69.68
73.67
73.50
68.94
60.83
49.68
36.66
23.36
11.34
1.56
-5.14
-8.14
-7.01
-1.19
7.75
19.06
33.18
50.77
71.58
95.01
120.24
146.44
172.81
195.02
210.62
219.69
224.07
222.42
212.08
190.32
155.26
106.23
38.51
-47.64
-145.83
-246.98
-343.14
-427.64
-494.86
-540.44
-562.02
-566.81
-559.94
-542.54
-515.01
-480.77
-445.24
-413.93
-391.23
-335.99
-242.47
-136.93
-49.45
9.39
43.80
61.57
68.96
70.75
71.94
71.46
72.76
83.17
107.51
142.95
180.85
211.78
230.14
235.86
228.04
210.63
190.85
174.51
163.28
156.14
151.70
148.75
145.39
135.28
113.15
78.21
33.81
-14.19
-58.77
-93.93
-117.03
-131.06
-140.29
-148.17
-154.03
-153.42
-141.64
-116.43
-80.19
-39.49
-2.61
23.72
36.65
37.99
32.58
24.38
15.71
6.89
-2.48
-12.32
-20.86
-26.48
-28.41
-26.75
-24.37
-23.46
-25.48
-30.24
-36.40
-41.52
-44.32
-44.76
-42.27
-39.53
-36.76
-32.83
-25.09
-14.59
-0.82
16.39
37.02
63.01
90.28
115.84
135.27
144.39
141.29
128.53
112.23
99.92
100.68
113.02
134.15
158.37
180.43
198.22
213.58
230.09
230.79
239.27
245.75
242.35
222.73
185.14
133.29
74.14
14.44
-41.97
-90.98
-135.56
-173.50
-199.71
-207.51
-191.99
-154.07
-105.43
-65.56
-50.21
-67.33
-108.74
-160.75
-212.22
-254.80
-289.95
-318.76
-340.05
-349.19
-344.77
-326.23
-295.49
-257.15
-215.83
-174.80
-134.29
-92.68
-46.87
3.88
58.92
115.26
168.33
213.22
245.24
261.65
262.06
249.98
231.88
215.27
204.87
200.28
196.51
187.15
169.52
146.82
128.10
124.46
142.78
181.46
231.04
278.85
314.80
335.14
341.40
339.41
337.30
342.37
358.26
383.49
410.98
429.73
427.72
394.26
324.81
223.49
100.97
-30.27
-159.77
-280.60
-387.32
-464.22
-498.45
-489.56
-448.41
-389.90
-327.59
-271.19
-226.20
-193.12
-168.61
-149.28
-131.72
-112.78
-90.67
-65.62
-39.74
-16.38
1.97
14.43
20.06
18.84
11.53
-0.81
-18.99
-41.28
-65.99
-91.20
-115.05
-137.01
-156.89
-173.61
-184.34
-184.83
-170.84
-141.09
-98.32
-49.26
-3.08
32.33
53.37
61.43
61.31
58.29
55.48
53.56
51.90
49.73
47.26
45.50
45.47
47.15
49.68
51.48
51.03
47.98
43.16
38.40
35.33
34.37
33.88
30.72
21.32
3.67
-21.06
-49.17
-75.13
-94.01
-103.20
-103.05
-95.94
-84.79
-71.53
-56.13
-37.94
-17.43
2.92
18.81
26.15
23.07
10.87
-6.86
-25.58
-42.22
-55.37
-64.14
-66.93
-60.84
-43.18
-13.20
23.83
59.66
85.88
97.46
94.35
80.51
61.52
41.94
24.15
8.58
-4.68
-15.41
-23.15
-27.65
-29.53
-29.22
-26.88
-22.19
-14.40
-2.84
12.61
31.10
51.12
70.80
87.91
99.62
103.01
95.61
76.83
48.56
14.67
-20.85
-56.01
-91.72
-130.92
-175.17
-222.58
-267.00
-300.17
-315.10
-309.49
-287.01
-255.45
-222.75
-192.58
-163.53
-130.71
-89.27
-38.03
19.22
75.21
122.17
151.29
158.32
143.30
109.53
62.37
8.34
-44.90
-88.52
-113.49
-112.74
-83.20
-28.17
42.75
116.12
178.31
219.50
235.94
230.31
209.11
179.69
147.39
114.56
81.48
47.83
13.69
-20.81
-56.39
-94.77
-137.29
-183.33
-228.97
-267.80
-293.73
-304.09
-301.18
-290.99
-279.44
-267.98
-252.55
-225.64
-179.98
-112.39
-25.08
75.01
178.34
274.74
354.96
411.16
438.48
437.68
416.29
387.05
363.63
354.96
362.43
380.87
403.06
424.66
445.91
468.95
493.25
512.56
516.21
494.04
441.82
363.72
270.47
174.30
83.50
0.31
-77.73
-154.88
-233.99
-314.60
-392.61
-461.17
-512.58
-540.75
-543.26
-522.48
-485.11
-439.68
-393.80
-352.41
-317.71
-291.01
-274.33
-270.15
-279.74
-300.89
-326.96
-348.42
-356.36
-345.75
-316.71
-273.41
-221.22
-163.84
-102.15
-35.21
37.27
112.83
186.29
251.40
302.75
337.65
356.43
361.24
354.38
337.13
309.03
268.99
216.60
153.56
84.68
17.76
-37.70
-72.36
-79.58
-57.39
-9.26
56.28
127.21
190.84
236.28
256.63
250.43
221.58
177.65
127.27
77.74
33.73
-2.38
-29.61
-47.39
-55.13
-52.99
-42.94
-28.81
-15.10
-5.16
0.54
3.71
6.63
10.36
13.77
14.31
9.84
0.29
-11.49
-20.56
-21.89
-12.00
9.95
42.24
81.28
122.37
160.30
189.92
206.79
207.84
191.70
159.00
111.92
54.04
-9.86
-73.82
-131.33
-176.22
-204.29
-214.49
-208.97
-192.24
-169.31
-143.97
-118.14
-92.24
-66.44
-41.73
-20.18
-4.20
4.19
3.98
-4.49
-19.75
-39.39
-60.38
-79.45
-93.39
-99.14
-94.99
-81.15
-59.63
-33.88
-7.73
15.56
33.98
46.98
56.60
65.67
76.50
89.47
102.08
109.45
106.16
88.71
57.62
20.21
-12.99
-31.82
-30.22
-8.08
29.90
76.85
126.36
173.92
219.44
263.68
306.56
346.38
380.53
407.03
425.64
437.80
429.93
393.46
326.43
236.15
136.44
41.00
-41.62
-108.46
-160.04
-198.07
-222.05
-232.08
-230.06
-220.11
-207.75
-197.81
-192.77
-192.42
-194.77
-195.55
-191.62
-182.14
-168.69
-154.39
-142.14
-133.42
-127.99
-124.55
-120.47
-113.70
-103.68
-91.57
-79.68
-70.30
-64.65
-62.64
-63.07
-63.59
-61.85
-56.28
-46.56
-33.62
-19.42
-6.54
2.51
6.75
6.39
3.95
2.88
6.39
15.58
29.14
43.84
55.59
60.91
57.07
43.13
19.45
-11.56
-45.41
-75.66
-95.33
-99.17
-85.75
-58.59
-24.79
7.53
32.05
46.01
50.10
46.92
38.98
27.37
11.94
-7.63
-29.72
-51.44
-69.23
-80.80
-85.81
-85.78
-81.85
-73.28
-57.50
-32.35
0.59
35.12
61.67
71.97
63.08
39.30
10.00
-14.97
-29.65
-33.90
-31.45
-26.65
-21.77
-16.51
-9.56
-0.71
8.24
14.48
16.15
13.59
9.71
8.23
11.31
17.91
24.18
25.32
18.14
2.95
-16.58
-35.00
-47.98
-53.86
-53.19
-47.29
-36.79
-21.76
-2.38
19.53
41.39
59.92
72.65
78.87
80.00
78.94
78.36
79.75
82.50
85.78
88.68
90.83
92.45
93.59
93.42
89.03
76.79
53.60
21.49
-13.86
-44.09
-62.12
-65.56
-57.35
-44.89
-30.30
-18.63
-9.07
1.85
18.72
42.96
70.31
98.36
124.45
147.00
165.23
179.95
188.39
188.20
177.61
156.52
125.55
86.28
41.18
-6.79
-53.43
-98.42
-140.19
-176.98
-206.19
-226.09
-237.70
-243.68
-247.22
-227.61
-179.13
-112.46
-47.91
2.43
38.82
67.59
95.05
123.63
151.61
166.01
163.81
146.05
120.40
96.66
82.00
78.97
85.65
97.58
106.37
113.61
117.89
120.16
120.59
116.66
103.83
77.91
36.81
-20.05
-93.04
-179.79
-272.60
-362.70
-443.27
-510.24
-561.28
-594.63
-609.60
-610.68
-602.16
-584.77
-559.23
-528.09
-496.15
-468.99
-451.50
-412.75
-344.28
-259.98
-181.52
-120.50
-73.42
-30.56
14.80
62.58
107.04
135.73
139.76
124.27
99.02
74.23
56.88
50.21
55.33
72.90
99.64
133.77
175.48
220.05
259.54
285.39
292.99
284.99
270.22
256.94
251.62
256.60
268.74
282.41
292.66
297.94
300.46
304.30
311.85
324.54
343.65
370.05
404.18
444.50
486.37
522.02
542.03
538.04
506.38
449.72
375.70
294.21
213.77
139.50
72.94
13.29
-40.76
-90.03
-135.02
-176.52
-216.08
-256.08
-299.43
-348.70
-405.03
-466.89
-529.34
-584.72
-624.40
-641.54
-633.33
-602.05
-553.88
-496.38
-435.87
-375.74
-316.70
-257.99
-199.03
-140.25
-83.01
-28.76
21.80
68.97
113.84
157.63
201.17
244.45
287.14
329.26
371.56
414.82
458.50
499.31
531.02
545.98
537.86
504.33
448.19
376.29
296.97
217.40
142.12
73.30
11.71
-42.24
-88.49
-127.81
-162.53
-196.57
-234.30
-278.56
-328.63
-379.44
-422.20
-447.44
-448.38
-423.87
-379.03
-323.25
-266.75
-217.32
-178.63
-150.86
-132.61
-122.69
-120.84
-127.15
-141.25
-161.63
-185.80
-210.54
-232.27
-247.27
-252.17
-244.54
-223.56
-190.57
-148.75
-102.43
-55.85
-12.23
26.51
59.51
86.70
108.63
126.39
141.68
156.62
173.41
193.64
218.02
245.67
274.15
299.89
319.27
329.85
331.18
324.74
312.72
296.94
277.27
251.88
218.36
175.49
124.30
67.87
10.16
-45.35
-95.70
-138.79
-172.65
-195.01
-203.28
-195.24
-170.35
-130.77
-81.28
-26.56
28.57
80.13
125.56
163.99
195.74
220.63
236.50
238.87
225.73
195.98
149.78
88.61
15.95
-62.23
-138.29
-204.21
-253.62
-277.82
-272.69
-240.40
-188.77
-127.32
-63.01
1.40
66.24
131.49
202.03
279.42
360.92
440.95
515.01
582.36
645.22
705.91
727.24
683.26
568.72
404.84
224.99
56.65
-85.58
-197.63
-276.31
-331.23
-362.82
-369.41
-351.18
-313.25
-263.92
-210.96
-161.15
-118.23
-83.62
-51.72
-16.95
23.51
66.88
106.22
133.31
141.67
129.00
97.68
56.03
12.78
-26.07
-60.37
-94.74
-135.53
-187.52
-251.01
-321.46
-392.17
-456.75
-502.08
-515.92
-491.74
-433.47
-354.83
-280.11
-214.76
-157.30
-104.19
-51.47
3.70
61.17
118.84
169.96
206.30
221.29
210.79
177.25
129.16
76.30
24.61
-23.74
-73.33
-124.98
-173.53
-212.23
-234.53
-236.27
-216.55
-175.56
-115.04
-41.20
38.21
117.55
194.21
266.72
328.53
375.38
405.53
419.23
417.52
402.38
374.64
333.04
275.81
202.77
116.75
22.15
-76.05
-173.12
-256.74
-313.18
-335.61
-327.47
-299.37
-262.16
-223.77
-188.62
-158.18
-131.32
-105.32
-77.42
-45.40
-8.43
32.98
75.73
115.09
146.97
169.57
182.98
187.01
180.87
163.49
134.99
97.74
56.56
18.09
-13.28
-32.40
-36.96
-28.29
-11.43
4.99
10.01
-6.93
-51.94
-123.30
-210.51
-297.49
-367.48
-408.17
-414.76
-389.25
-337.38
-265.53
-179.27
-83.97
12.92
101.54
171.81
217.10
237.04
237.49
227.75
215.98
205.97
195.82
180.14
154.04
116.33
70.37
22.20
-23.09
-63.96
-102.34
-140.45
-176.77
-203.50
-208.07
-178.65
-110.87
-12.31
98.21
196.41
261.07
281.74
261.37
213.38
155.69
104.77
71.23
58.54
64.40
82.64
105.16
123.74
131.19
122.83
97.62
58.54
11.36
-37.50
-83.77
-126.34
-166.55
-205.66
-242.69
-273.62
-292.89
-296.01
-281.18
-249.51
-203.66
-146.81
-82.30
-14.42
50.70
105.28
142.05
156.80
150.08
127.25
96.24
64.83
38.67
20.46
10.16
6.05
5.55
5.91
4.72
0.44
-7.33
-17.62
-28.41
-37.23
-41.84
-40.99
-34.74
-24.37
-12.08
-0.62
7.27
9.66
6.02
-2.28
-12.00
-18.87
-19.07
-10.89
4.20
21.85
36.37
43.15
40.59
30.49
16.76
3.22
-8.33
-18.65
-30.07
-44.64
-62.67
-82.49
-101.47
-117.64
-130.77
-142.19
-153.74
-166.49
-179.98
-192.47
-201.71
-205.90
-204.16
-196.33
-182.46
-162.29
-135.23
-100.59
-58.25
-9.04
44.98
100.65
154.11
201.43
239.41
266.28
282.15
288.90
289.29
286.06
280.92
274.34
265.82
254.72
241.01
225.61
210.16
196.29
184.93
175.82
167.63
158.48
146.64
131.29
112.80
92.74
73.26
56.51
43.93
35.95
32.01
30.75
30.62
30.14
28.40
24.90
19.60
12.73
4.64
-4.13
-13.01
-21.34
-28.48
-33.68
-36.70
-37.98
-38.54
-39.56
-41.77
-45.10
-48.49
-50.26
-48.13
-40.61
-27.51
-9.91
10.14
30.20
47.88
61.28
69.25
72.24
71.27
67.60
62.71
58.28
56.30
58.40
65.33
76.36
89.89
102.48
109.85
108.45
96.83
76.01
48.49
16.61
-23.47
-71.54
-123.31
-171.27
-207.95
-229.10
-234.54
-227.45
-212.79
-195.42
-177.79
-160.75
-144.27
-128.23
-112.98
-99.33
-88.29
-80.48
-75.82
-72.74
-69.46
-64.74
-58.26
-50.58
-42.93
-36.78
-33.32
-32.92
-34.37
-35.85
-35.57
-32.45
-26.50
-18.94
-11.70
-6.81
-5.46
-7.20
-10.35
-12.56
-11.80
-6.99
1.34
11.20
19.90
24.93
24.89
19.81
11.36
2.74
-1.75
2.05
16.56
40.68
69.24
93.99
106.44
101.43
79.59
47.60
15.62
-6.77
-14.53
-8.77
4.58
17.83
25.04
23.96
15.86
3.71
-9.69
-22.90
-35.49
-46.72
-54.84
-57.51
-52.72
-40.30
-22.74
-4.67
8.89
14.57
11.98
3.57
-7.00
-16.14
-21.69
-23.32
-22.22
-20.10
-18.45
-17.97
-16.65
-13.16
-6.76
2.50
13.88
26.24
38.37
49.18
57.75
63.48
66.21
66.99
68.08
72.17
80.97
93.80
106.90
114.35
110.26
91.26
58.66
18.68
-19.47
-46.80
-57.95
-53.21
-38.37
-22.59
-15.10
-21.98
-44.08
-76.98
-112.94
-144.05
-165.06
-174.57
-174.34
-167.86
-158.76
-149.71
-142.23
-136.93
-133.89
-132.40
-129.88
-121.59
-102.40
-69.45
-23.85
29.39
83.23
130.65
166.18
187.77
196.47
194.15
181.27
157.28
122.50
79.66
33.33
-11.75
-49.59
-72.55
-73.36
-47.99
3.02
74.46
156.98
236.93
297.18
323.08
307.26
250.42
159.43
45.68
-76.48
-184.30
-247.12
-248.89
-199.79
-124.29
-43.25
31.97
96.99
150.89
193.69
226.51
246.81
252.77
246.13
230.77
209.56
183.18
150.62
112.06
68.50
21.17
-26.49
-68.34
-98.28
-113.48
-115.68
-110.07
-103.38
-102.38
-111.02
-127.02
-141.52
-143.04
-122.23
-75.44
-5.57
79.00
165.32
240.19
294.14
323.41
329.13
315.99
290.83
260.98
232.57
206.06
180.62
156.45
135.06
117.79
104.62
94.77
87.18
81.16
70.30
52.11
29.92
9.87
-4.79
-15.73
-28.01
-47.89
-80.64
-139.81
-230.89
-347.44
-474.98
-599.65
-712.06
-806.55
-879.65
-929.22
-968.00
-1003.42
-1032.66
-1047.13
-1042.24
-1021.03
-991.55
-962.97
-857.12
-649.90
-381.42
-122.80
80.53
221.95
314.95
376.03
417.64
447.61
456.56
440.18
405.61
367.39
337.06
318.87
311.47
311.17
314.41
307.95
284.82
248.05
207.26
171.40
146.06
134.58
138.93
158.91
184.33
205.28
216.44
217.70
211.51
201.11
189.61
179.09
169.80
157.30
138.85
115.89
93.22
75.62
65.40
61.68
61.35
60.90
56.34
46.46
33.14
19.88
9.74
4.94
6.06
12.24
21.18
29.24
32.37
27.55
14.54
-3.02
-18.18
-23.71
-15.15
6.85
36.74
66.89
90.94
106.26
113.29
114.04
109.68
99.89
83.11
58.13
25.43
-12.26
-50.83
-86.19
-115.16
-135.59
-145.92
-145.13
-132.74
-109.75
-79.42
-46.69
-17.08
5.14
17.95
21.47
17.09
6.97
-6.61
-21.47
-35.34
-45.24
-48.45
-43.21
-29.37
-8.24
17.37
43.47
65.38
79.23
82.84
77.53
67.96
60.07
58.74
65.74
79.08
94.80
109.56
121.02
128.22
130.54
126.43
113.61
90.28
56.46
15.13
-27.32
-64.71
-92.71
-110.28
-120.26
-128.13
-139.60
-158.06
-182.53
-206.86
-222.45
-221.42
-200.39
-162.38
-116.90
-73.72
-41.82
-26.09
-25.37
-33.66
-41.66
-39.64
-20.76
16.52
67.37
121.08
164.36
186.21
181.92
155.48
117.93
82.42
59.51
53.32
60.61
73.41
83.44
84.82
76.67
62.31
45.63
29.41
14.40
-0.06
-14.22
-26.92
-36.11
-40.33
-40.05
-38.36
-39.04
-44.84
-56.25
-70.72
-83.92
-90.89
-88.47
-76.12
-56.38
-33.47
-11.94
4.70
14.75
18.17
15.59
7.86
-4.25
-20.46
-40.51
-63.52
-87.85
-111.00
-129.64
-140.69
-141.75
-131.95
-111.72
-82.56
-46.65
-6.54
34.85
74.99
111.60
144.18
171.16
191.11
202.95
206.24
200.72
186.64
164.86
136.72
103.94
68.27
31.79
-3.50
-35.54
-62.82
-84.23
-99.10
-107.21
-108.92
-105.31
-97.86
-88.04
-77.31
-67.19
-58.78
-52.84
-49.40
-48.20
-48.84
-51.04
-54.34
-58.42
-63.09
-68.15
-73.33
-77.74
-80.32
-79.99
-75.65
-66.23
-50.77
-28.41
1.80
36.74
73.61
109.28
140.73
165.53
182.28
190.66
191.27
185.40
174.64
161.08
146.51
132.08
118.23
105.02
92.25
79.94
68.38
58.05
49.70
43.63
39.50
36.37
33.14
29.16
24.33
19.23
14.67
11.48
10.07
10.41
12.30
15.26
18.27
19.31
15.87
6.08
-9.73
-28.61
-45.86
-57.32
-61.15
-58.45
-52.57
-47.14
-44.20
-43.56
-43.44
-42.03
-39.23
-36.70
-36.76
-40.95
-48.96
-58.37
-66.18
-69.07
-64.80
-52.73
-33.87
-10.46
14.48
37.83
56.64
68.58
72.53
68.65
58.19
43.14
25.65
7.53
-9.54
-24.23
-35.86
-44.48
-50.98
-56.66
-62.51
-68.64
-74.43
-78.53
-79.74
-77.74
-73.00
-66.67
-59.87
-53.27
-46.92
-40.44
-33.16
-24.58
-14.54
-3.23
8.70
20.45
31.11
39.79
45.63
47.79
45.51
38.33
26.46
10.85
-6.91
-25.16
-42.74
-59.34
-75.33
-91.34
-107.19
-121.81
-133.45
-140.28
-141.07
-135.68
-124.77
-109.32
-89.97
-66.94
-40.55
-11.95
16.50
41.56
60.09
70.43
72.97
70.07
65.02
60.72
58.81
59.59
62.80
68.21
76.10
86.81
100.23
115.30
130.14
142.74
151.48
155.94
156.61
154.35
149.76
142.92
133.57
121.56
107.41
92.30
77.90
65.78
56.92
51.47
49.03
48.88
50.19
52.18
53.80
53.88
51.11
44.44
33.52
19.15
3.20
-11.80
-23.43
-30.43
-32.59
-30.71
-26.23
-20.77
-15.41
-10.52
-5.75
-0.51
5.09
10.95
17.06
23.13
28.40
31.54
30.76
24.26
10.78
-10.52
-38.28
-69.41
-100.74
-130.53
-158.35
-184.47
-208.43
-228.51
-243.22
-250.31
-247.76
-234.68
-211.66
-180.17
-142.65
-103.01
-60.37
-21.79
2.90
8.51
-0.86
-15.01
-24.27
-24.23
-16.11
-4.34
5.71
12.12
16.34
20.93
27.23
34.74
41.94
47.67
51.85
54.22
55.77
57.75
60.62
63.51
64.77
63.04
58.19
51.64
45.07
40.56
39.56
42.01
46.41
50.53
52.61
52.00
49.05
44.19
37.78
29.58
18.91
5.24
-10.41
-26.24
-39.77
-48.69
-51.77
-49.13
-42.36
-34.04
-26.79
-22.49
-21.66
-23.37
-25.78
-27.07
-26.05
-22.70
-17.96
-13.07
-9.00
-6.01
-3.41
0.01
5.28
12.96
22.75
33.45
43.35
50.60
54.08
54.23
52.41
50.31
49.33
49.65
50.25
49.52
45.05
34.93
18.68
-2.49
-25.98
-47.69
-63.20
-68.27
-60.12
-40.49
-14.92
9.90
28.22
36.99
37.33
32.42
26.73
24.11
23.82
23.76
24.14
28.54
42.21
69.52
108.57
152.52
191.12
210.02
198.26
153.53
82.06
-6.32
-100.31
-189.42
-264.43
-301.63
-286.33
-225.79
-144.07
-64.15
-4.85
44.77
95.34
153.82
222.71
295.46
358.36
397.86
405.16
378.65
325.39
256.11
184.29
121.71
71.25
31.55
2.20
-15.52
-21.12
-16.92
-10.76
-11.30
-24.31
-55.34
-101.29
-148.80
-180.46
-184.36
-158.91
-114.21
-65.90
-28.88
-19.61
-43.50
-92.00
-148.95
-200.47
-239.44
-265.85
-282.97
-294.51
-311.81
-340.69
-377.90
-415.73
-449.27
-478.18
-504.61
-530.48
-502.72
-402.37
-256.43
-112.19
1.39
79.50
128.92
158.71
176.79
189.19
191.52
181.87
164.96
148.97
139.18
136.29
138.31
142.70
147.41
144.84
131.64
111.50
92.01
78.84
73.52
74.31
77.92
80.94
76.89
63.25
43.42
24.22
11.21
6.46
8.56
13.87
18.28
16.79
7.15
-9.07
-27.72
-44.19
-54.05
-53.24
-38.78
-10.49
26.35
61.92
84.60
85.66
63.71
26.41
-12.04
-37.05
-40.30
-23.19
4.89
31.98
49.58
55.83
54.48
51.07
49.20
48.99
47.74
43.04
34.39
23.57
13.43
6.56
3.62
3.63
4.75
4.92
2.90
-1.64
-8.07
-15.38
-22.29
-28.15
-32.78
-36.42
-38.74
-38.74
-34.91
-26.32
-13.74
-0.32
9.21
11.23
6.05
-1.23
-2.34
10.22
38.78
78.57
119.30
149.46
160.57
151.80
128.37
97.90
66.80
38.33
13.07
-9.42
-29.12
-44.91
-55.24
-59.89
-60.37
-59.41
-59.53
-61.85
-65.43
-67.99
-66.40
-58.50
-44.03
-24.97
-4.77
12.43
23.49
27.02
23.06
12.80
-2.05
-19.95
-39.72
-60.32
-80.73
-99.64
-115.35
-126.05
-130.32
-127.67
-118.66
-104.71
-87.59
-69.15
-50.99
-33.78
-17.50
-1.70
14.15
30.51
47.49
64.80
81.53
96.29
107.82
114.75
116.13
111.65
101.84
87.99
72.14
56.51
42.98
33.11
27.47
25.85
27.14
29.83
32.12
32.70
30.79
26.06
18.85
9.85
0.08
-9.33
-17.54
-23.91
-28.05
-29.95
-30.10
-29.36
-28.92
-29.66
-31.92
-35.63
-39.95
-43.46
-44.67
-42.84
-38.08
-31.81
-25.95
-22.27
-22.07
-25.48
-31.32
-37.58
-42.42
-44.53
-45.38
-46.10
-46.79
-46.71
-44.12
-36.39
-20.62
5.60
43.20
90.97
145.23
200.38
249.20
284.42
301.32
299.70
284.67
264.72
248.71
242.33
246.42
256.29
263.22
257.80
232.57
184.26
114.18
27.96
-68.09
-161.36
-237.22
-284.35
-297.22
-275.52
-221.69
-143.20
-47.65
53.22
144.40
210.82
242.96
240.94
210.53
164.73
117.25
77.46
47.82
26.10
8.24
-8.70
-25.70
-42.59
-59.53
-78.27
-101.85
-133.75
-176.07
-228.82
-288.87
-350.17
-404.11
-441.28
-454.53
-441.59
-406.41
-357.55
-305.41
-258.34
-220.51
-191.62
-168.15
-145.77
-120.82
-90.79
-54.05
-10.06
40.02
92.29
140.21
176.00
192.84
187.38
160.93
118.89
68.82
18.06
-27.81
-65.42
-92.93
-109.36
-114.06
-106.81
-87.95
-58.13
-17.74
33.12
94.05
163.05
235.41
303.74
359.65
395.97
409.05
399.69
371.96
331.23
282.02
227.01
167.26
103.14
35.18
-35.44
-106.83
-176.50
-241.34
-297.75
-341.93
-370.98
-384.00
-383.02
-372.81
-359.52
-348.67
-343.10
-342.19
-342.49
-339.50
-329.50
-310.75
-283.62
-249.72
-211.00
-169.09
-125.15
-80.12
-35.22
7.92
47.44
81.45
108.59
128.44
141.57
149.28
153.16
154.54
154.49
154.01
154.21
156.50
162.05
171.12
182.27
192.35
197.34
194.12
182.08
163.91
145.02
131.54
128.10
136.10
153.37
175.22
196.29
212.28
220.80
221.49
215.04
202.11
182.55
155.37
119.65
75.97
27.27
-21.23
-63.05
-92.60
-106.87
-106.26
-94.00
-74.56
-51.79
-28.33
-5.33
17.39
40.97
66.90
96.11
127.68
157.97
181.38
190.90
180.90
149.78
101.55
44.99
-8.89
-50.31
-73.34
-75.66
-59.25
-28.24
12.98
61.32
115.09
173.79
236.85
302.27
366.94
424.20
464.72
479.13
461.33
410.93
333.61
239.24
129.77
13.08
-100.42
-199.86
-276.63
-326.19
-348.70
-348.30
-331.86
-307.53
-281.02
-256.54
-236.21
-220.04
-206.44
-193.71
-180.85
-167.83
-155.48
-143.63
-132.35
-121.54
-110.55
-98.24
-83.87
-67.30
-49.32
-31.48
-15.21
-2.30
5.60
7.61
4.43
-2.99
-12.85
-22.73
-30.09
-32.30
-27.54
-15.08
4.64
30.40
59.88
89.96
117.21
138.23
150.17
150.96
139.62
115.31
81.46
42.98
4.57
-29.74
-57.57
-78.32
-92.93
-103.24
-111.28
-117.93
-122.82
-125.74
-126.72
-126.34
-125.85
-126.69
-129.89
-135.38
-143.99
-153.06
-161.07
-166.83
-168.26
-161.90
-143.69
-111.00
-64.25
-7.39
54.07
113.24
165.26
208.75
244.02
270.50
284.40
279.57
251.93
204.84
146.71
89.19
44.71
21.87
26.43
55.86
100.93
150.36
203.10
258.72
314.16
365.19
406.66
433.82
443.52
433.03
403.18
362.66
316.63
264.13
202.20
127.95
39.37
-63.68
-181.96
-312.12
-440.65
-556.32
-653.38
-727.42
-775.27
-795.14
-763.15
-667.45
-548.43
-426.99
-300.92
-176.27
-60.91
36.87
108.99
149.25
151.22
114.05
50.38
-24.66
-97.84
-156.54
-192.75
-205.46
-200.78
-191.68
-190.02
-197.44
-211.93
-231.27
-252.19
-272.46
-291.37
-308.17
-322.47
-332.27
-332.29
-321.12
-303.29
-285.59
-273.56
-268.82
-267.82
-264.59
-252.86
-227.24
-186.74
-134.60
-75.17
-12.23
51.35
113.18
170.06
218.19
253.96
274.57
278.89
268.43
247.35
221.15
195.47
175.12
163.68
162.96
172.16
187.14
200.96
205.87
196.51
172.49
138.90
104.03
75.47
56.86
46.79
41.28
36.92
33.28
32.55
37.60
49.21
65.09
80.85
91.72
94.74
89.39
76.75
58.43
35.58
8.40
-22.64
-55.89
-87.81
-113.14
-126.27
-123.01
-102.28
-67.15
-24.48
16.94
48.88
65.85
66.30
52.26
27.88
-2.19
-34.70
-68.31
-102.90
-138.19
-172.66
-203.19
-225.67
-235.82
-229.48
-204.01
-159.75
-101.02
-36.29
23.40
67.92
92.10
98.75
98.91
106.81
133.74
183.11
249.09
318.75
376.53
408.94
408.14
375.36
318.61
251.04
187.87
143.42
127.69
144.35
190.67
259.19
343.56
437.06
533.13
624.94
706.12
771.54
818.95
849.92
868.78
884.07
900.83
918.03
928.02
920.79
888.33
829.04
749.16
636.57
491.03
318.88
132.30
-53.92
-224.80
-369.35
-481.89
-562.02
-613.74
-640.57
-648.59
-641.78
-627.32
-609.37
-588.34
-562.28
-530.28
-495.41
-462.56
-439.37
-432.35
-443.84
-470.04
-504.20
-537.43
-562.83
-576.81
-576.56
-560.57
-528.17
-480.74
-422.22
-359.60
-301.24
-254.30
-221.71
-200.93
-186.52
-172.65
-155.50
-133.55
-107.00
-76.65
-43.37
-6.68
34.57
81.19
132.54
186.22
238.60
285.73
324.90
355.21
379.09
399.56
418.37
435.09
447.22
452.11
448.70
437.84
412.22
367.55
302.48
220.54
130.62
44.41
-27.34
-77.86
-105.66
-113.91
-107.05
-90.21
-68.35
-45.03
-24.12
-8.63
0.29
3.85
4.40
5.04
7.02
8.89
6.74
-4.74
-30.56
-73.84
-133.87
-205.16
-276.94
-335.82
-369.47
-371.16
-343.40
-298.02
-251.74
-219.56
-208.39
-214.19
-225.05
-227.40
-212.34
-178.82
-132.69
-82.45
-35.27
5.10
38.23
65.59
89.29
111.55
134.93
162.25
196.02
237.23
284.30
332.88
376.46
408.01
421.70
414.56
387.12
343.14
288.38
228.98
170.05
114.63
63.66
16.28
-29.40
-75.70
-124.94
-179.56
-241.64
-312.23
-390.35
-471.84
-549.49
-614.30
-658.18
-676.66
-670.45
-644.81
-607.03
-563.42
-517.27
-468.95
-417.54
-363.07
-307.27
-252.88
-201.95
-154.57
-108.99
-62.87
-14.89
34.65
84.14
131.76
176.35
217.54
255.10
288.15
315.36
335.54
348.65
355.99
359.58
360.80
359.72
355.16
345.80
331.54
313.60
293.90
273.53
252.17
228.33
200.76
169.69
136.91
104.89
74.92
46.23
16.15
-18.38
-59.11
-105.11
-152.98
-197.83
-234.53
-259.16
-269.69
-266.27
-251.07
-227.66
-199.88
-171.48
-145.82
-125.08
-109.78
-97.89
-84.92
-65.25
-34.75
6.98
54.40
97.16
124.76
131.83
121.33
103.32
90.00
89.57
103.68
126.70
149.55
165.13
172.04
174.63
179.39
191.39
211.81
239.85
272.78
306.87
337.63
359.67
367.31
356.27
326.73
276.60
214.51
155.46
112.69
88.77
73.76
52.48
14.92
-37.35
-93.31
-138.33
-163.49
-169.15
-162.40
-151.44
-140.85
-131.23
-119.84
-105.17
-86.29
-63.79
-39.27
-14.28
10.37
34.47
56.95
76.63
92.03
102.51
107.07
104.21
92.26
70.92
42.03
6.92
-31.67
-71.61
-111.83
-152.97
-196.52
-242.94
-290.37
-327.18
-341.29
-324.07
-274.52
-199.18
-109.32
-16.46
71.19
146.64
211.91
269.41
319.84
362.07
394.54
415.44
423.87
418.14
398.18
365.56
321.79
270.58
217.83
166.17
114.36
59.96
6.48
-42.60
-84.06
-114.82
-135.60
-149.89
-150.30
-133.41
-100.58
-57.03
-10.42
18.78
27.92
19.32
-4.07
-39.92
-78.01
-111.74
-135.39
-144.78
-137.27
-110.31
-65.50
-7.26
58.69
125.28
184.79
231.22
260.27
269.85
261.30
236.13
196.58
145.72
86.52
21.33
-46.84
-114.66
-178.36
-232.99
-274.65
-300.37
-308.38
-299.01
-275.09
-240.67
-200.82
-160.59
-123.86
-93.93
-73.41
-64.21
-68.02
-86.61
-121.01
-171.44
-237.18
-316.50
-406.72
-503.48
-599.92
-686.63
-753.24
-790.88
-795.15
-767.83
-716.38
-651.27
-582.57
-517.26
-458.52
-406.77
-361.50
-322.46
-289.76
-263.16
-241.53
-222.68
-204.37
-185.16
-165.01
-145.03
-126.91
-111.89
-100.10
-90.61
-81.64
-71.53
-59.24
-44.80
-29.07
-13.29
1.55
15.16
27.97
40.98
55.07
70.58
87.16
103.96
119.97
134.53
147.60
159.78
172.36
186.48
202.69
220.80
239.98
259.23
277.67
294.92
311.20
327.66
345.27
364.36
384.49
404.80
424.39
442.67
459.55
475.61
492.56
512.02
535.31
563.23
595.58
630.55
664.30
691.25
705.45
702.84
681.31
640.87
583.74
513.59
434.95
352.76
272.11
188.31
101.64
16.49
-60.00
-120.26
-159.42
-176.91
-176.10
-163.06
-141.16
-115.09
-89.25
-67.46
-52.69
-47.18
-52.48
-69.65
-103.37
-152.73
-212.83
-277.06
-339.61
-396.55
-445.10
-482.24
-503.57
-504.34
-480.84
-434.16
-371.33
-304.28
-245.86
-205.28
-185.81
-184.82
-196.42
-213.50
-231.76
-247.31
-256.81
-256.85
-243.87
-215.63
-172.17
-116.32
-52.51
13.31
75.40
128.80
170.01
197.31
210.20
209.57
197.41
177.32
153.36
129.94
110.88
96.84
88.25
84.39
83.78
84.65
85.96
87.04
87.82
88.60
90.01
93.58
101.30
115.87
136.99
164.10
195.16
227.06
256.74
281.86
300.64
310.34
306.50
283.76
239.03
173.69
94.78
13.48
-58.52
-112.92
-147.20
-164.14
-169.38
-167.95
-163.17
-156.74
-149.78
-143.58
-139.45
-137.95
-138.47
-139.35
-138.56
-134.79
-128.18
-120.15
-112.94
-108.90
-109.45
-114.03
-119.43
-120.13
-110.36
-86.64
-50.03
-6.32
35.86
68.60
87.81
94.31
92.52
87.51
82.56
78.24
73.52
67.49
60.62
54.75
51.85
52.66
56.11
60.14
62.14
60.69
55.79
48.84
42.15
38.09
38.60
43.55
51.21
57.77
58.60
49.49
28.64
-2.06
-37.10
-69.08
-91.55
-100.82
-97.36
-84.48
-66.49
-47.00
-28.09
-10.97
3.47
14.12
21.05
25.45
29.64
35.76
44.06
52.24
56.80
54.62
44.19
27.15
7.07
-11.47
-25.40
-33.56
-36.70
-37.15
-37.54
-39.71
-44.24
-50.49
-57.16
-63.36
-69.22
-74.58
-78.66
-79.51
-74.27
-60.81
-39.12
-11.67
17.81
45.24
68.80
88.82
106.96
125.11
143.27
158.80
166.78
162.36
142.06
107.15
62.93
17.41
-21.13
-47.47
-60.77
-64.06
-62.03
-59.44
-58.21
-58.46
-59.32
-60.11
-61.28
-63.61
-67.69
-73.35
-80.84
-89.33
-98.40
-108.27
-119.44
-132.32
-146.36
-159.84
-164.88
-160.05
-146.04
-125.42
-101.83
-78.96
-59.43
-43.92
-31.40
-20.10
-9.20
1.86
12.57
21.72
27.93
30.17
28.58
24.84
22.38
25.39
38.58
64.79
102.30
144.37
180.75
201.30
200.01
177.78
141.49
101.93
69.30
49.94
44.87
50.41
60.57
69.79
74.79
74.65
70.65
64.80
58.37
50.79
38.89
18.15
-14.55
-58.36
-108.93
-160.36
-208.46
-248.01
-274.78
-286.91
-283.89
-264.76
-227.95
-173.71
-106.09
-33.07
36.16
96.23
145.39
184.53
215.65
239.61
254.39
256.51
244.47
211.21
164.47
122.12
98.31
93.85
98.03
97.36
83.47
55.82
19.67
-16.60
-47.96
-74.64
-99.07
-121.39
-139.36
-149.49
-148.36
-134.04
-106.35
-67.04
-26.74
4.33
22.69
32.38
40.75
52.55
66.11
74.95
71.29
51.32
19.48
-13.76
-38.08
-48.67
-47.73
-41.48
-35.46
-32.06
-30.74
-29.17
-25.63
-20.30
-14.88
-11.52
-11.00
-12.59
-14.49
-15.00
-12.92
-7.82
-0.30
8.51
17.25
25.45
33.18
40.74
48.18
54.86
59.83
61.63
59.22
52.41
42.37
31.27
21.63
15.61
14.34
17.83
24.94
33.77
42.15
48.18
50.41
48.04
41.29
30.65
17.27
2.53
-12.17
-25.48
-36.31
-44.12
-48.87
-50.59
-50.01
-47.87
-44.91
-41.85
-39.07
-36.69
-34.65
-32.81
-30.81
-28.65
-26.30
-23.99
-21.94
-20.36
-19.26
-18.47
-17.70
-16.58
-15.02
-13.10
-11.23
-9.90
-9.48
-10.01
-11.03
-11.82
-11.66
-10.69
-9.07
-7.81
-8.19
-11.21
-16.96
-24.45
-32.03
-37.82
-40.80
-40.87
-39.44
-37.62
-36.32
-35.32
-33.24
-28.16
-18.67
-4.95
10.92
25.34
34.81
37.20
31.03
16.71
-4.18
-28.40
-51.36
-67.46
-71.90
-63.06
-45.06
-24.91
-11.19
-9.39
-18.40
-30.96
-37.13
-30.07
-9.70
17.66
42.70
58.16
62.08
57.60
49.70
42.40
36.78
31.54
25.10
17.42
10.38
6.25
6.66
11.56
19.70
29.63
40.11
50.73
60.22
67.06
69.35
66.08
58.39
49.22
41.98
37.65
33.70
24.43
4.26
-29.69
-75.39
-126.01
-172.34
-205.81
-221.05
-216.47
-196.05
-163.35
-123.64
-82.17
-43.13
-9.15
18.76
40.66
57.68
71.31
83.41
95.45
108.84
124.15
140.80
156.84
169.15
175.52
175.39
169.98
161.81
154.02
149.24
148.59
150.55
150.34
141.88
119.41
79.93
25.17
-38.23
-100.84
-153.76
-191.68
-214.73
-225.93
-229.29
-227.90
-222.35
-211.72
-195.20
-172.95
-142.60
-107.38
-70.03
-32.03
5.88
43.66
80.73
115.48
145.96
170.39
187.16
196.55
201.18
201.66
197.77
188.39
171.67
146.10
111.37
68.38
20.60
-27.48
-71.86
-109.36
-138.42
-159.06
-172.05
-178.09
-177.81
-170.87
-156.97
-136.96
-112.57
-86.32
-61.46
-41.22
-25.85
-17.14
-16.03
-21.72
-31.35
-40.06
-40.37
-28.17
-5.87
17.91
32.29
30.32
11.83
-17.96
-51.98
-84.74
-114.51
-142.08
-168.41
-193.01
-216.34
-234.81
-244.80
-244.13
-232.20
-209.84
-178.12
-137.68
-88.70
-30.46
33.24
96.71
154.10
200.66
233.37
251.37
256.09
250.35
237.73
221.64
204.72
188.44
173.30
159.07
145.26
131.82
118.75
106.33
94.84
84.57
75.57
67.71
60.72
54.12
47.83
41.80
36.00
30.45
25.32
20.71
16.77
13.66
11.27
9.89
9.67
10.60
12.60
15.50
18.88
22.18
26.21
29.25
30.37
29.00
24.78
17.83
8.67
-2.20
-13.93
-25.59
-36.47
-45.85
-53.33
-59.14
-63.74
-67.74
-72.25
-77.94
-85.27
-94.53
-105.28
-116.35
-126.56
-134.56
-138.93
-138.94
-133.59
-122.53
-106.97
-87.95
-66.29
-43.53
-21.44
0.66
20.51
36.56
47.25
51.15
47.26
35.58
16.39
-9.61
-41.00
-76.31
-113.07
-148.77
-181.14
-208.19
-227.68
-238.26
-239.32
-230.69
-213.18
-187.20
-152.94
-109.85
-63.01
-16.20
26.97
63.44
91.38
109.82
119.37
121.51
117.82
109.46
97.84
83.83
68.09
51.71
36.19
23.92
17.33
18.26
27.21
44.13
67.82
96.33
127.71
160.41
193.54
226.42
258.42
288.75
317.69
344.63
367.27
381.31
381.64
364.56
329.47
279.96
222.82
167.26
119.63
81.42
50.01
21.73
-4.86
-28.80
-47.67
-59.67
-62.66
-57.81
-49.22
-41.58
-37.43
-35.69
-33.62
-28.42
-18.40
-0.08
27.40
60.85
93.66
117.77
126.74
115.77
83.45
14.41
-88.40
-203.99
-304.94
-373.63
-406.88
-408.24
-383.82
-337.87
-274.08
-195.24
-107.56
-19.77
61.39
125.06
169.00
195.98
211.05
218.50
222.59
224.22
220.99
209.60
188.62
161.04
131.15
102.73
77.75
57.64
41.96
28.55
15.07
0.51
-13.40
-25.00
-33.38
-38.73
-41.60
-43.38
-46.62
-53.37
-63.88
-75.37
-85.28
-92.11
-95.84
-97.16
-96.71
-94.83
-90.02
-79.04
-58.15
-28.17
5.27
33.72
49.33
48.14
29.94
-1.92
-42.36
-85.48
-128.15
-167.73
-200.11
-219.43
-213.57
-178.18
-122.82
-72.21
-38.62
-25.92
-31.32
-48.64
-69.35
-85.08
-91.19
-85.94
-68.69
-37.85
5.78
58.49
112.11
152.20
165.06
145.74
101.40
46.94
-1.74
-35.47
-52.64
-56.97
-53.94
-47.62
-40.55
-34.29
-30.48
-29.96
-33.10
-38.62
-43.12
-42.30
-32.60
-13.28
13.03
40.42
62.54
74.82
76.37
70.49
63.47
63.10
73.56
94.65
120.74
142.56
150.22
137.14
103.11
54.43
2.00
-42.26
-68.09
-72.66
-59.16
-33.69
-2.24
30.76
63.33
92.94
116.52
130.92
133.73
124.83
106.49
81.65
55.50
31.32
10.23
-7.96
-23.75
-37.41
-48.28
-55.26
-58.92
-57.59
-51.64
-42.72
-33.14
-25.14
-20.51
-19.44
-20.01
-18.61
-11.18
4.19
26.63
52.92
78.86
102.17
122.97
144.16
169.58
201.93
240.75
283.06
324.92
362.77
395.04
421.01
440.21
451.17
452.07
440.91
416.47
378.65
328.24
268.60
203.09
135.58
69.84
9.36
-43.34
-86.87
-120.93
-147.88
-166.75
-179.07
-186.39
-190.22
-192.20
-194.41
-199.61
-210.75
-234.02
-266.08
-306.56
-353.56
-404.36
-456.16
-506.95
-555.86
-602.60
-652.82
-698.41
-738.29
-771.38
-796.61
-812.27
-815.72
-803.64
-772.97
-730.83
-670.74
-599.28
-524.93
-455.17
-393.61
-339.64
-290.25
-192.87
-115.91
-51.87
-4.31
26.38
45.34
62.73
89.03
130.19
184.74
236.82
285.39
322.70
346.60
360.55
371.26
384.53
403.54
429.01
454.37
485.39
519.42
551.44
575.52
586.87
582.63
563.01
530.81
486.38
437.73
386.88
333.37
274.27
212.48
154.77
107.32
71.44
42.89
20.59
3.07
-10.44
-19.72
-23.72
-22.87
-19.06
-15.51
-15.07
-22.12
-33.25
-44.47
-51.62
-50.69
-39.40
-17.42
12.96
48.88
87.45
126.75
164.37
198.57
228.15
251.69
272.18
289.37
303.47
315.40
327.06
339.47
352.94
367.00
380.23
390.61
393.45
385.33
364.66
331.72
287.27
232.40
168.56
97.78
22.62
-58.29
-144.54
-233.55
-321.27
-404.58
-481.92
-553.09
-618.10
-676.54
-733.94
-792.77
-851.18
-903.79
-944.88
-970.28
-977.53
-965.11
-932.29
-887.82
-839.11
-790.36
-742.97
-698.23
-659.34
-630.98
-617.83
-573.66
-477.74
-336.34
-175.84
-20.82
118.23
240.62
346.84
434.94
502.04
539.22
544.68
525.40
493.43
459.72
429.96
405.15
384.44
367.61
349.12
325.74
297.59
266.71
235.07
203.03
170.51
138.25
108.33
79.80
51.90
27.22
9.00
-0.34
-0.09
9.35
27.29
53.11
84.10
116.35
146.99
173.62
194.34
207.66
213.18
211.97
206.32
198.31
189.76
182.07
175.33
168.75
161.31
152.44
142.55
132.66
124.00
117.48
113.89
113.47
115.96
119.86
122.13
118.51
104.87
79.68
45.35
8.04
-24.68
-46.60
-55.60
-53.55
-44.49
-32.41
-19.39
-5.67
8.89
23.33
35.82
43.49
44.39
38.34
27.00
12.72
-2.19
-16.47
-30.35
-44.59
-59.83
-75.46
-90.01
-101.10
-106.75
-106.01
-99.48
-89.17
-77.71
-67.42
-59.25
-52.90
-47.21
-41.13
-34.25
-27.64
-23.12
-22.48
-27.28
-37.13
-52.03
-70.98
-91.65
-110.04
-121.17
-120.57
-105.94
-79.39
-46.85
-15.75
8.02
22.21
28.46
30.76
32.77
36.24
40.58
44.02
45.32
44.54
42.65
40.53
38.23
34.98
29.84
22.07
12.15
1.45
-8.46
-16.01
-20.65
-23.04
-24.39
-26.28
-30.01
-36.02
-43.98
-53.29
-62.96
-72.25
-80.79
-88.28
-94.50
-99.24
-101.59
-100.54
-95.26
-85.38
-71.17
-53.54
-33.72
-13.34
6.00
23.06
36.87
46.91
52.95
55.09
53.66
49.46
43.40
36.49
29.93
24.81
22.01
22.13
25.38
30.67
37.82
46.20
54.82
62.76
69.23
73.67
75.80
75.67
73.58
70.07
65.60
60.57
55.34
50.18
45.29
40.69
36.45
32.61
29.17
26.06
23.13
20.30
17.50
15.26
13.30
11.68
10.48
9.80
9.66
10.03
10.88
12.09
13.66
15.40
17.16
18.67
19.62
20.03
19.45
17.79
15.26
12.53
10.23
9.14
9.82
12.26
15.97
20.22
24.24
27.34
29.26
29.87
29.13
26.89
22.32
14.35
2.13
-14.39
-34.19
-54.91
-73.62
-87.53
-94.55
-94.19
-87.39
-75.93
-61.40
-44.99
-26.79
-6.80
14.39
35.62
55.26
71.78
84.12
92.42
94.78
89.24
73.89
48.33
15.13
-20.24
-50.89
-71.18
-79.22
-77.29
-69.65
-60.10
-49.59
-36.35
-18.00
5.76
31.30
52.81
64.66
64.72
54.85
39.55
23.48
8.91
-4.71
-19.14
-35.53
-52.84
-67.48
-75.31
-73.56
-62.57
-46.28
-30.90
-22.75
-25.48
-38.65
-57.65
-75.48
-85.35
-83.01
-67.92
-42.67
-11.51
21.86
55.24
88.19
120.97
153.52
184.47
211.23
230.30
238.01
231.86
211.28
178.10
136.18
90.68
46.57
7.90
-22.64
-43.95
-55.52
-57.13
-48.86
-31.65
-7.69
19.62
46.33
69.89
87.52
97.52
99.44
93.65
80.82
61.19
33.95
-2.78
-51.48
-114.11
-190.09
-275.01
-360.44
-435.36
-488.79
-513.09
-506.16
-471.95
-419.01
-357.26
-295.20
-238.02
-187.37
-142.61
-102.57
-66.83
-35.62
-9.29
12.72
32.03
50.64
69.96
89.96
109.16
125.46
137.24
144.18
147.37
148.86
150.56
153.74
158.61
164.39
169.82
173.65
174.95
173.48
169.63
164.07
157.47
150.23
142.30
133.61
124.47
115.75
108.74
104.67
104.09
106.51
110.63
114.71
117.04
116.33
111.94
104.09
93.65
81.81
69.10
54.62
35.92
10.41
-22.28
-58.46
-90.27
-108.76
-107.63
-86.88
-53.71
-20.11
1.98
4.87
-13.32
-49.46
-97.80
-151.26
-201.81
-240.94
-260.97
-256.93
-228.66
-181.95
-127.20
-76.03
-37.27
-14.22
-4.78
-3.40
-3.72
-0.68
7.93
23.10
41.32
56.37
63.33
61.13
51.83
38.31
23.19
8.58
-3.62
-12.16
-16.31
-16.14
-12.99
-8.93
-5.73
-4.01
-3.38
-2.96
-2.56
-2.36
-2.45
-2.77
-3.29
-3.63
-3.57
-2.92
-1.09
2.99
10.89
23.74
40.81
59.09
74.02
81.89
80.90
72.56
60.51
48.95
40.06
32.94
24.43
12.20
-3.70
-20.04
-31.87
-35.47
-30.00
-17.80
-3.23
9.48
18.24
22.80
24.05
22.98
19.81
14.18
6.18
-3.18
-11.59
-16.23
-14.84
-6.52
7.71
25.26
42.55
56.16
63.89
65.27
61.07
52.75
41.92
29.93
17.20
4.68
-7.53
-19.21
-29.59
-37.88
-43.53
-46.38
-46.80
-46.05
-45.50
-46.19
-48.44
-51.73
-54.95
-56.79
-56.29
-53.29
-48.32
-42.66
-38.13
-36.81
-40.17
-48.10
-57.95
-65.03
-64.13
-51.61
-27.21
5.78
40.83
72.31
95.00
105.75
104.10
92.09
73.77
54.20
38.51
30.19
30.14
36.32
44.80
51.51
53.71
51.02
43.59
32.70
19.68
5.70
-8.02
-20.05
-28.97
-33.90
-35.00
-33.63
-31.27
-29.41
-29.01
-30.11
-32.14
-34.26
-35.68
-36.39
-36.99
-38.02
-40.00
-43.07
-46.74
-50.10
-52.96
-53.76
-52.20
-49.01
-45.24
-42.16
-40.83
-41.67
-44.54
-48.54
-52.06
-53.60
-52.05
-46.56
-37.04
-24.16
-8.82
7.49
23.24
37.20
48.01
54.67
56.90
55.20
50.88
46.33
44.11
46.56
55.21
69.72
87.91
106.16
120.25
126.47
122.89
109.39
87.57
60.01
29.95
-0.01
-28.16
-53.59
-75.97
-95.23
-111.93
-126.54
-138.52
-145.99
-145.58
-133.76
-109.07
-73.79
-33.91
2.72
29.63
44.33
48.40
46.02
41.47
37.19
33.42
29.40
24.69
19.98
16.69
15.82
17.21
19.58
21.26
20.80
17.94
13.49
8.90
5.63
4.29
4.63
5.63
6.04
4.94
2.15
-1.79
-6.08
-9.63
-12.07
-13.51
-14.54
-15.88
-18.14
-21.68
-26.32
-31.76
-37.52
-43.52
-49.77
-56.26
-62.77
-68.80
-73.71
-76.55
-76.63
-73.00
-65.34
-53.85
-39.14
-22.30
-4.61
12.51
27.69
39.74
47.92
51.86
51.60
47.75
41.13
32.82
23.80
14.83
6.42
-1.10
-7.61
-13.29
-18.19
-22.39
-25.79
-28.19
-29.32
-28.95
-26.80
-22.79
-17.21
-10.61
-3.71
2.44
6.72
8.04
5.67
-0.32
-9.35
-19.96
-30.09
-37.32
-39.48
-35.00
-23.41
-6.55
13.92
35.86
57.34
76.76
93.22
106.28
115.72
121.27
122.58
119.78
113.33
104.48
94.59
85.17
77.24
71.02
66.21
62.31
59.19
56.50
53.23
47.61
38.10
24.54
9.08
-4.29
-11.51
-10.47
-2.32
9.07
19.20
25.26
27.12
26.85
26.87
28.19
29.99
30.43
28.09
23.25
18.22
16.15
19.03
26.35
34.20
35.95
25.86
1.62
-34.10
-74.60
-111.64
-138.04
-149.49
-144.42
-123.62
-89.38
-45.77
0.67
41.19
66.76
71.51
55.58
25.58
-8.27
-36.55
-54.37
-62.64
-65.84
-68.53
-72.82
-77.96
-81.76
-82.23
-78.15
-68.61
-52.31
-27.57
6.17
46.65
88.81
126.09
153.11
167.78
170.95
164.49
149.70
126.49
94.88
57.04
18.15
-15.31
-38.63
-51.79
-59.37
-67.57
-80.03
-95.07
-106.02
-105.21
-88.83
-59.27
-24.09
8.08
32.04
47.62
57.68
65.46
71.73
74.68
72.31
64.88
55.59
49.33
49.67
56.39
65.94
72.95
72.36
61.61
41.42
14.88
-13.76
-40.77
-64.60
-84.55
-100.75
-114.08
-125.57
-135.99
-145.79
-155.14
-164.26
-174.12
-183.58
-190.02
-190.56
-183.65
-170.55
-155.76
-145.17
-137.43
-135.37
-137.75
-139.18
-133.51
-117.54
-92.84
-64.87
-39.48
-21.29
-13.16
-13.72
-18.31
-22.12
-20.61
-10.38
9.51
37.93
70.72
101.60
126.28
143.87
155.77
165.38
177.40
189.76
202.99
216.17
226.12
229.16
223.16
207.31
183.53
156.82
133.72
120.64
120.15
130.53
147.57
167.20
184.43
194.20
192.06
174.68
140.87
90.86
27.25
-49.61
-127.48
-189.70
-224.97
-232.79
-220.73
-198.39
-174.23
-153.30
-136.98
-122.67
-107.92
-91.50
-73.51
-54.74
-36.01
-18.42
-2.36
11.06
21.16
26.06
23.95
14.82
1.80
-9.27
-13.17
-5.69
11.79
33.56
51.57
59.41
54.95
40.58
21.39
1.80
-15.80
-31.44
-45.70
-59.39
-71.83
-81.30
-85.89
-83.97
-75.09
-59.78
-39.34
-14.13
14.28
44.88
75.81
103.23
121.55
125.01
110.61
80.00
39.76
-0.70
-32.49
-50.69
-55.39
-50.63
-41.62
-32.50
-25.44
-20.98
-18.92
-19.17
-21.97
-27.06
-32.38
-33.88
-27.08
-9.58
16.42
43.93
63.84
69.02
57.91
35.45
10.39
-8.95
-18.63
-20.00
-17.49
-15.24
-14.67
-14.45
-12.23
-6.90
0.64
7.81
12.00
11.82
7.98
2.93
-0.47
-0.30
3.80
10.39
16.99
21.25
22.00
19.71
16.24
13.72
13.30
14.61
15.85
14.78
9.79
0.90
-10.64
-22.92
-34.07
-42.72
-47.02
-44.84
-34.29
-15.18
9.60
34.07
51.26
56.73
50.65
37.71
24.44
15.78
12.84
13.17
13.24
10.85
6.73
3.43
3.45
7.28
13.32
19.07
22.27
21.99
18.76
14.10
9.25
5.59
2.18
-2.27
-8.82
-17.97
-29.05
-40.29
-49.46
-54.86
-55.86
-53.14
-48.47
-44.04
-41.76
-42.48
-45.69
-49.68
-52.56
-53.02
-50.63
-46.11
-40.93
-36.78
-35.10
-36.79
-41.89
-49.13
-55.55
-56.90
-48.89
-29.23
0.75
35.89
69.09
93.98
107.52
110.91
108.21
104.10
101.85
102.60
105.58
108.82
109.67
105.22
92.95
71.93
43.76
12.65
-15.96
-37.57
-50.19
-54.79
-54.08
-50.93
-46.97
-42.74
-38.39
-34.47
-32.11
-32.31
-35.26
-39.91
-44.72
-48.24
-49.83
-49.95
-49.89
-50.88
-53.59
-58.06
-62.76
-65.88
-65.93
-62.00
-54.35
-43.74
-31.37
-18.31
-5.19
7.76
20.54
32.96
44.95
55.79
64.89
71.40
74.95
75.52
73.79
70.57
66.49
62.25
58.23
54.76
51.95
50.00
48.90
48.66
48.90
48.91
47.72
44.19
37.36
26.79
12.72
-3.91
-21.65
-38.78
-53.84
-65.84
-73.94
-77.53
-75.90
-68.64
-55.81
-38.04
-16.71
5.56
25.19
38.38
42.05
34.93
20.61
1.00
-20.94
-42.11
-60.43
-75.40
-87.36
-97.37
-106.50
-115.75
-125.71
-135.22
-141.17
-139.19
-125.50
-98.67
-61.60
-20.88
15.67
41.58
55.02
58.47
56.64
53.33
49.81
44.70
35.77
22.33
5.69
-10.66
-22.97
-28.33
-26.31
-16.26
