1459701953.00
64.000000
-0.00
-0.00
-0.00
-0.00
-0.00
-0.00
-0.00
-0.00
-0.00
-0.00
0.00
0.01
0.01
-0.00
-0.03
-0.05
-0.05
0.00
0.13
0.36
0.66
1.01
1.37
1.72
2.06
2.40
2.79
3.24
3.80
4.42
5.06
5.66
6.20
6.68
7.15
7.68
8.31
9.14
10.09
11.04
11.88
12.56
13.14
13.76
14.65
15.96
17.91
20.32
22.90
25.38
27.58
29.57
31.68
34.32
37.81
42.54
48.15
54.10
59.83
64.97
69.58
74.14
79.34
85.71
93.76
103.00
112.62
121.73
129.77
136.75
143.30
150.75
157.77
166.64
177.95
191.79
206.97
220.57
228.25
225.36
208.53
176.87
132.76
80.05
23.07
-34.94
-92.44
-149.16
-205.23
-260.37
-313.74
-363.87
-409.83
-450.91
-486.50
-515.74
-537.23
-549.22
-549.96
-538.37
-514.20
-478.67
-433.88
-382.45
-327.02
-269.85
-212.64
-156.66
-102.94
-52.35
-5.87
35.60
71.41
101.27
125.33
144.12
158.37
168.78
175.98
180.35
182.16
181.63
179.03
174.70
169.06
162.54
155.48
148.14
140.62
132.98
125.22
117.39
109.56
101.86
94.38
87.21
80.36
73.79
67.42
61.19
55.10
49.21
43.63
38.48
33.84
29.65
25.79
22.08
18.38
14.65
10.97
7.54
4.56
2.13
0.22
-1.38
-2.94
-4.68
-6.69
-8.84
-10.92
-12.71
-14.06
-15.00
-15.64
-16.12
-16.62
-17.45
-19.00
-21.64
-25.25
-28.88
-30.82
-29.16
-22.77
-11.89
1.77
15.81
27.98
36.98
42.46
44.67
43.98
40.69
35.29
28.75
22.49
17.94
15.92
16.24
17.82
19.32
19.75
18.82
16.88
14.55
12.35
10.53
9.04
7.67
6.30
4.93
3.66
2.59
1.78
1.18
0.72
0.37
0.20
0.33
0.81
1.58
2.42
3.04
3.25
2.99
2.39
1.72
1.17
0.91
0.94
1.20
1.66
2.33
3.21
4.33
5.72
7.44
9.51
11.93
14.58
17.19
19.43
20.91
21.35
20.64
18.80
15.98
12.47
8.38
4.01
-0.35
-4.32
-7.65
-10.23
-12.15
-13.57
-14.70
-15.61
-16.20
-16.36
-16.04
-15.32
-14.45
-13.66
-13.09
-12.74
-12.49
-12.19
-11.74
-11.11
-10.36
-9.53
-8.73
-8.01
-7.46
-7.13
-6.97
-6.83
-6.48
-5.70
-4.41
-2.65
-0.63
1.40
3.21
4.64
5.60
6.04
5.95
5.37
4.39
3.21
2.04
1.09
0.47
0.19
0.20
0.42
0.76
1.14
1.50
1.77
1.93
1.94
1.80
1.50
1.04
0.39
-0.47
-1.56
-2.89
-4.31
-5.66
-6.78
-7.54
-7.95
-8.15
-8.39
-8.92
-9.86
-11.10
-12.34
-13.17
-13.26
-12.39
-10.53
-7.75
-4.19
-0.07
4.35
8.63
12.34
15.06
16.58
16.89
16.22
14.88
13.19
11.44
9.81
8.42
7.32
6.51
5.91
5.40
4.85
4.17
3.33
2.35
1.28
0.18
-0.89
-1.93
-2.98
-4.07
-5.22
-6.44
-7.72
-9.07
-10.54
-12.26
-14.31
-16.67
-19.09
-21.10
-22.11
-21.64
-19.58
-16.32
-12.61
-9.31
-7.08
-6.07
-5.95
-6.07
-5.83
-4.95
-3.71
-2.80
-3.08
-5.09
-8.46
-11.78
-12.87
-9.76
-1.85
9.02
18.63
21.41
12.12
-12.53
-52.95
-106.53
-168.17
-231.13
-288.00
-331.72
-356.87
-360.66
-343.65
-309.34
-262.90
-209.31
-151.91
-92.02
-29.83
33.84
96.12
151.94
195.31
221.56
229.37
221.49
203.66
182.38
162.49
145.98
132.44
120.48
109.24
98.97
90.38
83.64
77.84
71.40
63.12
53.15
43.07
35.33
32.16
34.71
42.93
55.80
71.85
89.41
106.54
120.94
130.07
131.72
124.61
108.87
86.02
58.60
29.42
1.09
-24.39
-45.67
-62.05
-73.32
-79.68
-81.60
-79.68
-74.52
-66.69
-56.85
-45.78
-34.46
-23.78
-14.36
-6.34
0.52
6.59
12.10
17.06
21.42
25.27
29.03
33.32
38.56
44.66
50.84
55.84
58.34
57.36
52.48
43.88
32.17
18.23
3.07
-12.14
-26.22
-38.02
-46.64
-51.51
-52.51
-49.87
-44.04
-35.48
-24.56
-11.58
3.02
18.53
33.89
47.83
59.25
67.67
73.51
78.04
82.93
89.53
98.39
109.04
120.25
130.60
138.76
143.59
143.85
138.06
124.81
103.49
74.97
42.02
8.77
-20.40
-42.22
-55.54
-61.49
-62.88
-63.15
-65.33
-71.37
-82.08
-97.38
-116.62
-138.88
-162.90
-186.86
-208.33
-224.96
-235.62
-241.44
-245.63
-251.99
-262.40
-274.96
-284.04
-282.49
-264.73
-229.17
-178.63
-118.77
-55.85
4.96
59.89
105.96
140.40
160.88
166.39
158.15
139.58
115.20
89.21
64.25
40.99
18.36
-5.47
-32.05
-61.78
-93.54
-124.68
-151.64
-170.92
-180.04
-178.21
-166.44
-147.22
-123.70
-98.83
-74.47
-50.82
-26.30
1.95
36.98
80.61
132.12
187.83
241.69
287.03
318.61
334.17
334.77
323.92
305.97
284.68
262.54
240.91
220.54
202.05
185.94
172.31
160.57
149.50
137.69
124.13
108.62
91.86
75.07
59.47
45.82
34.16
23.94
14.35
4.73
-5.12
-14.88
-23.92
-31.60
-37.59
-42.01
-45.39
-48.38
-51.49
-54.85
-58.19
-60.98
-62.67
-62.97
-61.88
-59.68
-56.75
-53.42
-49.86
-46.13
-42.26
-38.36
-34.66
-31.42
-28.86
-27.01
-25.73
-24.71
-23.64
-22.30
-20.65
-18.80
-16.98
-15.42
-14.27
-13.54
-13.16
-12.97
-12.82
-12.62
-12.36
-12.09
-11.91
-11.91
-12.15
-12.64
-13.35
-14.22
-15.22
-16.33
-17.47
-18.45
-19.00
-18.78
-17.51
-15.14
-11.86
-8.04
-4.13
-0.43
2.92
5.88
8.43
10.46
11.83
12.45
12.35
11.72
10.86
10.02
9.35
8.85
8.45
8.05
7.65
7.30
7.05
6.89
6.70
6.33
5.67
4.67
3.42
2.04
0.62
-0.80
-2.29
-3.90
-5.72
-7.72
-9.89
-12.17
-14.45
-16.52
-18.09
-18.82
-18.43
-16.88
-14.39
-11.37
-8.29
-5.47
-3.01
-0.92
0.81
2.09
2.77
2.72
2.02
0.94
-0.09
-0.63
-0.46
0.43
1.84
3.46
5.03
6.38
7.43
8.11
8.35
8.08
7.28
6.04
4.57
3.13
1.88
0.83
-0.21
-1.50
-3.30
-5.70
-8.64
-11.88
-15.09
-17.89
-19.88
-20.75
-20.30
-18.52
-15.63
-11.99
-7.99
-4.00
-0.26
3.10
5.99
8.30
9.96
10.93
11.28
11.22
11.02
10.94
11.11
11.44
11.71
11.71
11.34
10.73
10.10
9.65
9.44
9.36
9.20
8.78
8.07
7.15
6.21
5.40
4.79
4.37
4.01
3.56
2.78
1.44
-0.68
-3.59
-7.13
-10.91
-14.37
-16.98
-18.37
-18.42
-17.28
-15.31
-12.94
-10.58
-8.56
-7.07
-6.19
-5.88
-6.01
-6.45
-7.08
-7.81
-8.59
-9.38
-10.11
-10.70
-11.09
-11.25
-11.27
-11.31
-11.51
-11.99
-12.66
-13.33
-13.77
-13.80
-13.46
-12.95
-12.56
-12.52
-12.93
-13.69
-14.59
-15.42
-15.94
-15.98
-15.39
-14.06
-11.97
-9.18
-5.90
-2.37
1.11
4.30
6.96
8.93
10.14
10.59
10.45
9.97
9.41
9.03
8.96
9.28
9.98
11.02
12.24
13.44
14.36
14.76
14.51
13.65
12.31
10.64
8.74
6.69
4.60
2.64
1.04
-0.06
-0.73
-1.21
-1.85
-2.93
-4.56
-6.60
-8.81
-10.90
-12.62
-13.74
-14.12
-13.62
-12.19
-9.93
-7.06
-3.91
-0.81
1.89
3.94
5.18
5.62
5.43
4.86
4.13
3.43
2.80
2.22
1.70
1.29
1.07
1.12
1.39
1.81
2.26
2.67
3.00
3.21
3.21
2.91
2.24
1.26
0.12
-0.95
-1.81
-2.45
-2.97
-3.55
-4.33
-5.36
-6.61
-7.97
-9.31
-10.46
-11.24
-11.44
-10.86
-9.41
-7.15
-4.33
-1.32
1.51
3.87
5.60
6.69
7.18
7.14
6.65
5.85
4.93
4.08
3.45
3.13
3.08
3.20
3.40
3.60
3.79
3.95
4.11
4.22
4.23
4.06
3.67
3.04
2.25
1.36
0.48
-0.35
-1.12
-1.88
-2.73
-3.79
-5.10
-6.66
-8.37
-10.04
-11.41
-12.24
-12.37
-11.76
-10.48
-8.65
-6.42
-3.93
-1.32
1.19
3.34
4.94
5.88
6.20
6.06
5.63
5.06
4.42
3.77
3.20
2.83
2.70
2.78
2.93
3.01
2.92
2.73
2.54
2.46
2.46
2.40
2.09
1.42
0.40
-0.83
-2.07
-3.13
-3.93
-4.49
-4.94
-5.45
-6.16
-7.09
-8.17
-9.20
-9.96
-10.25
-9.93
-8.96
-7.35
-5.10
-2.29
0.89
4.08
6.86
8.84
9.84
10.01
9.75
9.55
9.78
10.53
11.62
12.72
13.58
14.13
14.45
14.69
14.96
15.22
15.36
15.27
14.89
14.27
13.48
12.62
11.78
10.95
10.10
9.12
7.91
6.36
4.45
2.20
-0.24
-2.70
-5.03
-7.17
-9.15
-11.10
-13.19
-15.57
-18.29
-21.34
-24.53
-27.59
-30.10
-31.61
-31.78
-30.56
-28.29
-25.64
-23.44
-22.40
-22.82
-24.45
-26.61
-28.41
-29.08
-28.25
-25.91
-22.35
-17.95
-13.06
-7.90
-2.72
2.24
6.65
10.27
12.95
14.79
15.93
16.49
16.31
15.00
12.04
7.13
0.36
-7.67
-16.09
-23.96
-30.57
-35.56
-38.85
-40.56
-40.90
-40.16
-38.68
-36.82
-34.94
-33.22
-31.69
-30.24
-28.68
-26.95
-25.07
-23.15
-21.28
-19.44
-17.53
-15.41
-13.04
-10.53
-8.10
-6.03
-4.51
-3.57
-3.01
-2.51
-1.66
-0.13
2.22
5.22
8.46
11.36
13.42
14.30
13.94
12.53
10.44
8.08
5.85
4.07
3.01
2.87
3.72
5.44
7.79
10.37
12.74
14.54
15.53
15.66
15.00
13.72
12.02
10.16
8.38
6.92
5.97
5.59
5.68
6.02
6.33
6.40
6.14
5.56
4.75
3.78
2.74
1.63
0.49
-0.65
-1.83
-3.10
-4.56
-6.28
-8.25
-10.31
-12.19
-13.59
-14.27
-14.16
-13.33
-11.96
-10.22
-8.21
-5.94
-3.46
-0.86
1.61
3.65
4.97
5.40
4.98
3.95
2.72
1.77
1.61
2.68
5.15
8.94
13.59
18.46
22.87
26.31
28.53
29.53
29.40
28.27
26.28
23.57
20.36
16.91
13.43
10.09
6.93
3.97
1.25
-1.11
-2.90
-3.90
-3.98
-3.12
-1.47
0.73
3.13
5.36
7.01
7.70
7.15
5.32
2.46
-0.97
-4.34
-7.10
-8.94
-9.80
-9.82
-9.22
-8.17
-6.69
-4.74
-2.27
0.69
4.01
7.48
10.90
14.04
16.73
18.85
20.31
21.03
21.01
20.31
19.13
17.76
16.48
15.49
14.79
14.25
13.73
13.15
12.67
12.52
12.83
13.54
14.30
14.66
14.33
13.29
11.81
10.34
9.23
8.60
8.39
8.41
8.56
8.87
9.47
10.41
11.58
12.62
13.12
12.71
11.27
8.92
5.92
2.52
-1.13
-5.02
-9.19
-13.54
-17.81
-21.51
-24.13
-25.27
-24.82
-23.01
-20.27
-17.18
-14.16
-11.47
-9.14
-7.08
-5.20
-3.50
-2.08
-1.05
-0.50
-0.35
-0.38
-0.34
0.05
0.87
2.00
3.08
3.63
3.17
1.33
-2.04
-6.89
-12.92
-19.68
-26.56
-33.00
-38.50
-42.86
-46.17
-48.80
-51.13
-53.38
-55.43
-56.87
-57.09
-55.55
-51.94
-46.29
-38.92
-30.40
-21.36
-12.46
-4.22
2.96
8.89
13.56
17.08
19.64
21.42
22.54
23.09
23.13
22.77
22.16
21.49
20.89
20.38
19.87
19.21
18.31
17.23
16.13
15.27
14.84
14.88
15.26
15.84
16.50
17.33
18.59
20.64
23.74
27.95
32.99
38.30
43.16
46.85
48.88
49.04
47.43
44.45
40.65
36.70
33.24
30.83
29.82
30.32
32.16
34.97
38.29
41.69
44.84
47.49
49.40
50.25
49.61
46.93
41.75
33.92
23.82
12.35
0.72
-9.96
-19.05
-26.48
-32.61
-37.85
-42.23
-45.28
-46.21
-44.32
-39.40
-31.85
-22.66
-13.09
-4.42
2.40
6.76
8.57
8.22
6.44
4.17
2.25
1.24
1.20
1.83
2.50
2.53
1.42
-1.10
-4.98
-9.93
-15.52
-21.29
-26.83
-31.80
-35.95
-39.12
-41.30
-42.62
-43.41
-44.00
-44.65
-45.37
-45.95
-46.06
-45.53
-44.45
-43.20
-42.28
-41.97
-42.19
-42.42
-41.98
-40.26
-36.98
-32.27
-26.57
-20.39
-14.23
-8.38
-3.00
1.80
5.93
9.26
11.64
12.99
13.41
13.11
12.44
11.73
11.25
11.07
11.15
11.34
11.49
11.43
11.06
10.22
8.84
6.87
4.42
1.73
-0.87
-3.01
-4.47
-5.17
-5.26
-5.04
-4.88
-5.07
-5.73
-6.80
-8.10
-9.40
-10.54
-11.36
-11.73
-11.53
-10.59
-8.79
-6.13
-2.78
0.94
4.59
7.69
9.91
11.07
11.24
10.63
9.55
8.35
7.29
6.56
6.30
6.59
7.43
8.71
10.22
11.69
12.86
13.56
13.71
13.39
12.75
11.99
11.26
10.70
10.29
9.95
9.52
8.84
7.82
6.48
4.98
3.48
2.13
1.04
0.25
-0.13
0.06
0.98
2.79
5.56
9.25
13.77
18.88
24.23
29.38
33.87
37.42
40.08
42.34
45.02
49.04
54.98
63.07
73.16
84.94
97.94
111.34
123.66
132.79
136.47
133.12
122.65
106.84
88.75
71.77
58.46
50.00
46.28
46.56
50.13
56.62
65.93
77.98
92.38
108.32
124.43
138.83
149.23
153.20
148.68
134.41
110.17
77.02
37.47
-4.38
-43.21
-73.79
-93.07
-102.08
-106.23
-113.37
-130.02
-157.69
-191.62
-222.52
-240.82
-241.12
-224.26
-196.50
-166.24
-140.60
-123.22
-114.20
-111.49
-112.63
-115.96
-121.01
-128.11
-137.53
-148.55
-159.25
-166.87
-168.69
-163.23
-150.66
-132.71
-111.89
-90.46
-69.54
-48.89
-27.32
-3.74
21.94
48.28
72.89
93.55
109.39
121.43
131.87
142.78
154.72
166.32
175.07
178.73
176.47
169.18
158.95
148.12
138.74
132.04
128.10
125.49
121.43
113.02
98.73
79.17
56.66
33.75
11.65
-10.23
-32.92
-56.31
-77.77
-92.84
-97.55
-90.95
-76.21
-59.48
-47.09
-42.77
-46.55
-55.45
-65.78
-75.62
-86.25
-101.76
-126.84
-163.62
-209.27
-255.88
-292.88
-311.27
-306.83
-281.16
-240.08
-190.30
-136.92
-82.59
-28.77
22.48
67.51
101.66
121.53
126.29
118.35
102.27
83.09
65.14
51.53
44.06
43.32
48.52
57.34
66.25
71.50
70.39
62.21
48.26
31.24
13.99
-1.34
-13.61
-22.37
-27.38
-28.50
-25.93
-20.53
-13.81
-7.63
-3.45
-2.02
-3.16
-6.04
-9.53
-12.52
-14.21
-14.22
-12.77
-10.60
-8.75
-8.23
-9.51
-12.31
-15.75
-18.71
-20.25
-19.83
-17.15
-11.90
-3.76
7.43
21.08
35.63
48.73
57.95
61.64
59.48
52.35
41.88
29.84
17.87
7.56
0.59
-1.29
3.26
14.60
31.70
52.27
73.51
92.95
109.29
122.67
134.30
145.88
158.78
173.50
189.45
205.14
218.73
228.67
234.21
235.50
233.42
229.14
223.61
217.33
210.32
202.30
192.98
182.12
169.52
154.84
137.59
117.35
94.21
69.09
43.68
19.99
-0.37
-16.80
-29.85
-40.82
-51.07
-61.42
-71.93
-82.15
-91.52
-99.72
-106.78
-112.94
-118.58
-123.82
-128.48
-132.16
-134.56
-135.62
-135.65
-135.17
-134.77
-135.12
-136.58
-139.03
-141.92
-144.56
-146.47
-147.62
-148.32
-149.17
-151.11
-154.59
-159.19
-163.74
-166.86
-167.45
-164.87
-158.85
-149.29
-137.33
-123.84
-109.01
-92.55
-74.45
-55.35
-36.27
-17.97
-0.75
13.01
21.80
25.70
26.30
25.10
22.66
18.89
13.72
7.36
-3.88
-22.58
-48.87
-79.99
-112.76
-145.19
-176.41
-206.05
-233.64
-263.74
-299.23
-339.03
-377.74
-409.45
-430.74
-440.89
-440.78
-400.58
-307.55
-172.82
-26.10
106.61
214.89
299.62
364.30
410.41
437.30
439.61
419.36
381.83
337.38
296.46
265.18
244.52
232.29
225.48
218.09
206.65
190.76
172.78
154.69
136.26
115.76
92.13
66.24
38.70
12.17
-9.44
-21.83
-22.92
-14.18
0.33
15.79
28.13
33.59
30.44
19.04
2.07
-16.80
-34.02
-46.75
-53.12
-52.51
-46.08
-35.98
-24.89
-15.13
-8.39
-5.48
-6.13
-9.06
-12.28
-13.89
-12.72
-8.88
-3.52
1.66
5.09
5.91
4.22
0.97
-2.48
-4.95
-5.91
-5.55
-4.61
-4.00
-4.42
-6.06
-8.39
-10.45
-11.41
-11.02
-9.75
-8.53
-8.23
-9.37
-11.68
-13.91
-14.22
-10.99
-3.66
7.02
19.09
29.86
36.09
35.21
26.80
13.20
-1.34
-12.27
-16.25
-12.19
-1.72
10.49
18.63
18.64
10.40
-2.41
-13.66
-17.11
-8.87
10.63
35.18
55.05
61.58
50.83
24.15
-13.48
-55.85
-97.71
-128.74
-139.54
-128.91
-104.49
-75.59
-47.64
-22.90
-2.82
11.11
18.07
18.25
12.77
4.41
-3.16
-7.39
-8.15
-7.33
-7.75
-12.74
-23.37
-39.40
-57.85
-72.93
-78.08
-69.00
-45.39
-11.28
26.36
61.11
88.82
109.75
127.68
146.58
167.49
187.71
202.67
201.92
181.00
140.63
86.00
23.94
-40.00
-102.63
-162.16
-216.35
-261.55
-292.40
-305.32
-300.39
-281.68
-255.60
-228.12
-202.59
-179.36
-156.54
-130.41
-97.94
-57.99
-11.82
36.99
83.31
121.97
148.77
162.77
167.71
170.49
178.27
195.69
223.63
259.36
297.77
331.26
352.80
359.21
352.27
337.37
321.03
308.61
302.27
300.13
294.34
276.19
241.73
194.21
141.32
90.66
46.95
10.95
-19.65
-52.06
-93.37
-146.52
-209.73
-279.87
-354.91
-432.72
-509.06
-555.09
-543.87
-471.76
-363.17
-250.05
-154.34
-84.52
-38.57
-8.81
13.45
30.51
40.17
40.35
32.73
21.74
12.33
8.36
11.64
21.77
34.19
43.49
47.10
45.71
40.21
29.47
11.55
-13.68
-42.11
-67.50
-83.14
-84.36
-70.49
-45.70
-17.52
8.31
27.74
38.81
39.80
29.62
9.29
-16.55
-40.59
-55.51
-56.84
-45.14
-25.06
-3.39
13.74
21.94
18.74
1.98
-29.75
-75.02
-127.79
-177.37
-211.64
-222.01
-207.25
-173.23
-130.71
-90.23
-57.77
-33.68
-14.22
5.59
29.67
55.94
83.26
111.51
141.80
175.43
212.17
249.17
281.30
302.98
310.37
303.65
286.14
262.72
237.59
212.71
187.56
160.30
129.22
93.92
56.10
18.64
-15.34
-43.20
-63.21
-74.84
-78.88
-77.52
-74.01
-71.69
-73.19
-80.11
-92.54
-108.84
-126.04
-140.77
-150.40
-153.75
-150.73
-141.07
-124.90
-102.82
-76.26
-47.87
-21.28
-0.12
13.58
21.06
27.72
38.84
56.74
79.72
103.68
125.06
142.95
159.00
176.19
197.67
222.53
246.05
262.30
267.45
261.58
248.15
231.73
204.22
163.37
112.12
56.46
0.72
-53.11
-102.30
-140.60
-164.35
-170.52
-157.65
-129.65
-94.72
-62.38
-40.49
-34.27
-44.86
-70.03
-104.62
-141.38
-174.49
-200.74
-219.27
-230.21
-233.83
-230.27
-220.35
-205.77
-188.55
-171.51
-156.79
-144.64
-132.95
-118.45
-98.98
-74.98
-49.17
-24.74
-3.92
13.54
30.25
49.96
75.65
107.84
143.87
178.87
207.48
225.50
231.18
225.64
212.20
195.14
178.05
162.60
148.42
134.00
118.24
101.26
84.25
68.30
53.62
39.74
26.51
15.03
7.33
4.94
7.03
10.03
9.09
0.99
-13.67
-30.70
-44.69
-52.23
-53.40
-51.23
-49.45
-50.58
-55.43
-63.98
-76.66
-94.60
-118.86
-149.06
-182.60
-214.99
-240.88
-255.79
-257.12
-244.90
-221.62
-191.81
-160.76
-132.79
-109.78
-90.60
-72.10
-50.97
-25.71
2.73
31.56
57.67
79.22
96.09
109.40
120.25
128.90
134.43
135.51
131.05
120.85
105.57
86.38
64.66
41.79
19.11
-2.06
-20.40
-34.43
-42.59
-43.36
-35.87
-20.59
0.17
22.43
41.54
53.72
57.36
53.44
44.90
35.25
27.20
21.91
19.28
18.60
19.43
21.90
26.52
33.77
43.67
55.64
68.62
81.45
93.26
103.82
113.50
123.13
133.68
145.81
159.51
173.95
187.49
197.97
203.23
201.69
192.83
177.41
157.21
134.53
111.45
89.35
68.88
50.19
33.36
18.70
6.62
-2.68
-9.61
-15.21
-20.80
-27.40
-35.24
-43.71
-51.72
-58.39
-63.44
-67.32
-70.77
-74.41
-78.41
-82.51
-86.33
-89.58
-92.13
-93.95
-94.98
-95.22
-94.76
-93.71
-92.27
-90.60
-88.70
-86.37
-83.31
-79.39
-74.97
-70.73
-67.40
-65.38
-64.59
-64.53
-64.53
-64.03
-62.83
-61.49
-60.74
-61.09
-62.45
-64.03
-64.60
-62.87
-57.95
-49.71
-39.64
-29.65
-21.20
-14.69
-9.69
-5.30
-0.63
4.81
10.92
15.27
15.36
9.73
-1.40
-16.74
-34.66
-53.50
-71.78
-88.37
-105.14
-123.58
-143.37
-161.99
-176.36
-184.82
-187.70
-187.01
-185.57
-188.57
-198.75
-214.97
-233.07
-248.59
-258.99
-263.43
-261.34
-232.00
-165.10
-67.13
39.06
128.48
186.86
213.21
215.86
207.36
199.56
196.79
198.95
203.49
207.61
208.96
205.85
197.99
186.97
176.25
164.80
151.43
136.11
120.37
106.21
95.35
88.54
85.57
85.19
83.83
78.66
68.79
55.74
42.58
32.52
27.92
29.64
37.54
48.28
57.51
61.07
56.47
43.46
24.10
2.14
-18.05
-32.75
-40.34
-40.90
-35.83
-27.15
-17.06
-7.74
-1.22
0.89
-2.15
-10.04
-21.05
-32.46
-41.36
-45.65
-44.90
-40.45
-34.71
-30.09
-28.14
-29.09
-32.13
-35.86
-39.14
-41.67
-43.96
-46.58
-49.46
-51.96
-53.17
-52.48
-49.59
-44.98
-40.13
-37.10
-37.29
-40.62
-45.61
-49.85
-50.47
-43.86
-26.98
0.52
34.96
69.42
95.55
106.13
97.99
74.05
43.98
20.62
14.37
28.87
60.77
101.87
142.20
173.25
184.61
170.40
135.75
94.62
59.32
34.65
19.15
8.93
0.41
-8.68
-18.71
-30.25
-42.51
-54.28
-62.18
-61.09
-47.10
-20.93
11.14
39.75
55.48
51.38
23.21
-27.41
-92.81
-161.95
-223.19
-266.30
-283.47
-270.68
-228.64
-162.99
-82.45
2.82
82.57
147.50
190.63
208.34
200.94
172.16
127.69
73.55
14.48
-46.64
-107.51
-164.30
-211.38
-242.72
-254.64
-247.67
-226.54
-198.40
-170.12
-146.10
-126.68
-110.10
-94.71
-80.42
-68.27
-59.57
-55.00
-54.26
-56.05
-56.28
-50.98
-38.11
-18.34
5.77
30.61
52.46
68.61
78.49
87.14
100.37
121.66
150.63
184.61
220.11
253.59
281.79
302.09
316.86
329.00
340.21
350.83
361.91
375.33
392.46
412.91
409.85
367.93
291.90
203.74
124.20
62.76
19.06
-11.63
-34.30
-51.57
-59.79
-55.44
-38.88
-16.21
5.05
19.31
22.59
13.72
-5.09
-26.95
-45.40
-56.73
-61.62
-61.24
-58.21
-54.86
-54.60
-60.62
-74.77
-98.52
-128.18
-161.69
-196.08
-231.07
-256.69
-265.97
-257.42
-236.64
-211.00
-184.22
-167.00
-154.51
-143.82
-135.18
-132.80
-142.76
-165.97
-203.90
-253.84
-309.58
-360.73
-398.42
-415.41
-409.06
-365.02
-285.43
-188.16
-95.79
-23.06
29.24
66.64
95.54
119.38
138.49
148.78
148.03
139.40
129.63
126.77
135.95
157.73
190.68
230.43
267.53
291.08
292.64
267.62
216.11
141.83
53.57
-36.34
-115.30
-174.72
-210.49
-222.23
-213.36
-188.59
-158.01
-132.09
-116.53
-110.91
-109.41
-108.47
-106.02
-100.28
-89.22
-73.83
-53.93
-29.34
-0.77
30.11
61.92
94.72
129.44
166.44
203.80
237.72
262.62
272.52
263.36
235.52
193.58
144.66
96.31
54.88
25.58
11.82
14.95
34.38
68.95
115.26
167.71
219.48
264.17
297.59
317.67
324.28
319.21
307.59
294.46
283.09
273.93
265.00
253.53
237.19
215.11
175.18
114.64
39.32
-39.70
-112.61
-173.93
-220.23
-247.91
-256.79
-247.90
-223.57
-190.57
-158.52
-136.47
-130.32
-140.63
-162.88
-189.86
-213.92
-227.99
-228.91
-217.76
-198.50
-175.96
-153.83
-134.01
-117.21
-103.39
-91.73
-82.04
-74.39
-68.42
-63.00
-56.44
-47.45
-35.91
-22.71
-8.66
5.86
21.32
38.83
59.44
83.31
109.16
134.48
156.54
173.62
185.45
193.02
197.88
201.22
203.26
202.80
197.88
186.66
168.57
145.17
119.89
96.66
78.24
65.10
55.52
46.97
37.40
25.67
11.18
-7.06
-30.01
-57.37
-86.00
-109.82
-121.86
-117.90
-99.50
-74.17
-52.54
-43.60
-50.96
-72.12
-100.81
-130.70
-158.25
-183.39
-207.95
-233.54
-259.26
-281.52
-295.00
-294.67
-277.81
-245.33
-201.63
-153.06
-105.76
-63.66
-27.83
2.69
29.33
52.25
69.87
79.66
79.91
71.26
57.08
42.38
31.84
28.04
30.59
37.00
44.27
50.50
55.54
60.46
66.21
72.60
78.06
80.61
79.14
74.25
67.90
62.17
57.79
53.51
46.76
35.16
18.03
-3.00
-24.65
-43.43
-57.06
-64.98
-68.01
-67.50
-64.53
-59.74
-53.52
-46.27
-38.34
-29.89
-20.62
-9.79
3.50
19.86
39.16
60.57
82.75
104.43
124.79
143.62
161.09
177.31
192.05
204.63
214.15
219.87
221.42
218.83
212.37
202.53
190.05
175.94
161.37
147.29
133.91
120.49
105.56
87.71
66.40
42.48
17.89
-5.10
-24.71
-40.16
-51.55
-59.49
-64.67
-67.72
-69.41
-70.65
-72.31
-75.02
-78.97
-83.90
-89.12
-93.83
-97.38
-99.72
-101.26
-102.73
-104.88
-108.30
-113.22
-119.44
-126.31
-132.84
-138.23
-141.68
-142.42
-139.86
-133.84
-124.84
-113.78
-101.76
-89.70
-79.00
-70.36
-63.52
-57.36
-50.64
-42.69
-33.61
-24.02
-14.83
-8.77
-7.98
-12.97
-22.33
-33.73
-45.21
-55.72
-65.16
-74.19
-86.62
-105.33
-130.25
-158.08
-184.18
-205.31
-220.61
-231.11
-238.96
-249.39
-265.62
-286.92
-309.31
-328.30
-341.29
-347.30
-345.35
-310.56
-229.16
-106.31
33.37
160.33
255.75
315.75
346.97
360.00
364.24
362.59
354.13
338.94
320.15
302.17
287.75
276.59
266.06
253.11
233.19
204.01
168.22
131.74
100.02
75.77
58.71
47.09
39.55
34.15
30.14
28.34
30.11
36.07
45.30
55.69
64.86
71.11
73.14
71.36
68.39
67.85
72.45
82.03
92.78
98.09
90.81
65.83
22.91
-32.09
-88.47
-133.75
-157.49
-154.47
-126.09
-79.73
-26.46
22.02
56.25
70.82
64.89
41.83
7.97
-28.85
-60.86
-81.82
-88.35
-80.48
-61.40
-36.53
-12.03
6.51
15.25
12.79
0.38
-18.49
-39.20
-57.35
-70.24
-77.51
-80.86
-82.69
-84.72
-87.11
-88.44
-86.69
-80.34
-69.04
-53.64
-35.65
-16.65
2.07
19.32
33.95
44.78
50.93
52.14
49.06
43.02
35.60
28.17
21.48
15.77
10.92
6.76
3.12
-0.10
-3.08
-6.07
-9.37
-13.22
-17.73
-22.99
-29.04
-35.85
-43.20
-50.46
-56.57
-60.13
-59.84
-54.94
-45.56
-32.82
-18.51
-4.68
6.84
14.77
18.47
17.89
13.60
6.55
-2.08
-11.13
-19.78
-27.64
-34.74
-41.33
-47.57
-53.31
-57.89
-60.19
-58.86
-52.91
-42.47
-29.40
-17.40
-11.09
-14.52
-29.42
-54.38
-85.31
-117.09
-145.62
-169.23
-188.76
-206.40
-224.13
-242.29
-259.09
-271.01
-273.74
-263.25
-236.71
-193.64
-136.66
-71.73
-7.17
48.48
89.24
113.99
127.35
138.41
157.41
191.64
242.22
302.97
362.34
407.30
427.44
417.68
378.70
315.60
236.45
151.08
70.44
5.33
-35.70
-49.16
-38.51
-13.78
11.76
26.46
24.26
5.91
-22.81
-54.52
-83.14
-105.09
-118.71
-123.10
-117.52
-101.97
-78.16
-49.99
-23.06
-3.22
5.42
1.77
-11.85
-30.62
-48.79
-61.42
-65.62
-61.13
-50.39
-37.92
-29.04
-28.02
-36.40
-52.14
-70.29
-85.05
-92.24
-90.92
-83.17
-72.51
-61.74
-51.69
-41.52
-29.75
-15.56
0.92
19.05
38.52
59.70
83.24
109.05
135.58
159.88
178.61
189.39
191.90
188.15
181.70
176.38
174.92
177.90
183.98
190.80
196.15
198.75
198.38
195.65
191.52
186.83
181.78
176.17
170.03
163.96
158.93
155.96
156.05
160.23
169.57
184.20
203.72
227.73
255.68
285.73
313.87
334.48
342.07
333.22
306.69
264.47
211.97
156.61
104.57
58.34
16.74
-23.01
-63.55
-107.28
-155.97
-209.81
-267.92
-329.77
-395.27
-463.57
-531.47
-580.28
-589.54
-553.10
-483.40
-400.18
-317.17
-238.12
-161.67
-87.17
-19.38
33.80
63.36
67.10
49.13
17.33
-19.50
-55.03
-86.37
-115.43
-144.22
-176.73
-214.70
-251.43
-280.08
-294.59
-291.78
-261.88
-221.83
-173.51
-119.81
-61.05
4.53
76.81
152.37
222.46
278.53
312.15
315.09
283.86
226.44
159.84
99.22
50.66
9.80
-32.84
-82.50
-135.07
-182.84
-218.25
-234.24
-230.57
-206.80
-169.90
-130.82
-99.94
-79.59
-65.12
-48.27
-26.00
-3.57
10.38
4.96
-25.08
-76.34
-137.03
-191.97
-228.77
-241.73
-232.96
-210.67
-185.62
-164.93
-149.86
-136.98
-120.65
-98.14
-71.42
-45.91
-26.76
-16.41
-12.98
-12.04
-9.50
-0.79
14.93
34.71
53.52
67.38
75.45
80.53
87.15
99.12
122.65
160.14
209.35
264.18
318.22
367.63
411.95
452.64
491.89
538.03
597.58
672.25
756.81
840.82
912.01
959.58
976.82
925.22
790.15
586.44
353.95
134.53
-46.85
-183.48
-278.16
-336.40
-365.37
-367.94
-352.02
-327.42
-303.92
-287.39
-278.33
-274.52
-274.63
-279.92
-288.17
-296.95
-303.91
-308.12
-309.53
-308.29
-304.61
-298.74
-291.08
-279.28
-262.67
-243.58
-227.04
-217.46
-215.21
-215.97
-213.34
-202.50
-181.53
-153.45
-124.14
-98.87
-78.81
-60.29
-37.45
-6.26
32.59
74.35
112.25
140.92
158.49
166.66
169.11
169.34
169.58
170.79
173.35
177.44
182.75
188.09
191.23
189.48
180.57
163.85
141.16
116.84
96.74
86.09
87.07
97.00
108.81
113.85
105.99
84.95
56.59
29.99
12.77
7.43
10.74
16.56
19.75
18.83
15.70
12.94
11.12
7.74
-1.28
-19.17
-46.32
-80.50
-118.82
-159.80
-203.87
-251.52
-300.77
-345.37
-375.94
-383.63
-364.66
-322.68
-267.70
-211.95
-164.92
-130.71
-108.43
-95.01
-87.97
-86.11
-88.09
-90.34
-86.62
-69.89
-35.92
13.93
72.36
128.51
172.20
197.51
204.13
196.21
179.63
159.24
137.36
114.10
88.59
60.54
30.96
2.14
-23.15
-42.50
-54.48
-58.78
-56.07
-47.80
-35.87
-22.47
-9.71
0.64
7.41
10.14
9.09
5.39
1.04
-1.14
1.89
12.49
31.30
56.67
85.02
111.95
133.80
148.73
156.92
159.99
160.07
158.93
157.68
156.70
155.79
154.41
151.80
147.30
140.56
131.64
120.95
108.90
95.73
81.45
65.96
49.32
31.91
14.46
-1.99
-16.39
-27.85
-35.95
-40.93
-43.73
-45.74
-48.40
-52.67
-58.74
-66.06
-73.72
-80.88
-87.04
-91.99
-95.59
-97.77
-98.39
-97.42
-95.01
-91.59
-87.75
-83.99
-80.52
-77.22
-73.96
-70.64
-67.28
-63.94
-60.69
-57.58
-54.73
-52.29
-50.41
-49.47
-49.59
-50.40
-51.02
-50.24
-47.07
-40.98
-32.13
-21.35
-10.96
-3.41
-0.38
-2.02
-6.92
-12.77
-17.23
-18.70
-16.84
-14.67
-15.99
-23.65
-38.03
-56.94
-76.76
-93.66
-104.67
-108.41
-108.65
-110.72
-119.22
-135.70
-158.36
-183.35
-206.43
-224.00
-234.06
-240.61
-248.86
-262.82
-283.26
-308.41
-336.36
-365.96
-395.66
-397.62
-349.59
-243.75
-95.53
63.69
202.44
300.10
350.65
361.47
348.53
325.26
300.25
276.02
251.85
227.24
203.48
183.84
171.91
169.31
171.31
170.84
161.99
142.80
116.60
88.56
63.49
44.49
32.90
27.07
25.17
26.27
30.78
39.54
52.22
67.12
81.71
93.43
99.34
97.32
86.69
68.61
46.02
22.63
1.89
-13.31
-21.68
-24.33
-23.77
-22.67
-22.37
-22.49
-21.60
-18.32
-12.26
-4.58
2.45
6.34
5.35
-0.15
-8.09
-15.41
-19.37
-18.59
-13.68
-7.04
-2.11
-2.29
-8.90
-21.00
-35.36
-47.69
-54.18
-53.05
-44.93
-32.49
-19.36
-7.57
2.74
13.81
29.04
51.54
82.48
120.65
161.61
191.40
194.10
159.37
91.36
8.58
-64.41
-107.14
-109.88
-76.74
-25.50
25.25
60.17
71.23
58.60
29.05
-7.73
-40.83
-59.76
-52.41
-14.88
41.95
96.56
128.18
132.05
115.00
90.94
74.90
76.40
96.33
127.76
159.47
181.05
186.21
173.41
145.75
107.99
63.87
15.71
-35.37
-88.06
-139.39
-185.44
-222.82
-248.77
-261.53
-260.51
-245.29
-217.43
-181.30
-142.22
-105.05
-73.13
-47.26
-27.25
-13.14
-4.79
-3.65
-12.23
-30.87
-56.93
-86.04
-109.38
-120.83
-130.73
-149.24
-177.45
-213.09
-248.41
-272.60
-276.41
-256.09
-215.85
-165.50
-114.32
-69.08
-33.09
-5.18
17.81
38.47
57.45
73.00
82.72
86.47
85.34
80.51
73.51
65.40
56.39
46.12
33.88
19.24
3.22
-12.79
-27.80
-40.43
-49.35
-53.40
-51.72
-44.28
-31.74
-14.93
4.96
26.83
51.14
79.05
111.39
147.57
184.73
217.90
241.43
250.86
245.01
228.15
206.86
187.02
171.57
160.14
150.57
140.77
130.48
121.80
120.28
129.81
150.31
177.95
207.43
234.78
257.92
276.18
289.45
300.16
308.71
312.98
309.70
296.62
274.54
246.32
215.48
167.08
97.71
16.33
-60.67
-121.06
-162.44
-187.84
-201.62
-207.18
-206.81
-199.56
-186.25
-170.45
-157.00
-150.87
-152.35
-159.06
-167.92
-176.88
-183.30
-187.34
-191.67
-194.61
-197.91
-202.05
-206.46
-209.95
-210.94
-205.44
-189.59
-161.44
-121.95
-75.83
-28.95
12.95
46.33
70.68
88.94
103.56
113.92
116.21
105.35
79.81
43.38
4.00
-30.40
-54.30
-67.08
-72.42
-75.63
-81.09
-89.97
-100.91
-109.30
-113.61
-111.92
-102.75
-85.39
-60.60
-31.08
-0.84
26.76
49.83
67.90
81.24
88.29
84.77
65.44
27.78
-24.27
-79.74
-124.01
-145.00
-138.14
-108.68
-68.83
-32.22
-7.73
3.08
4.62
3.21
3.01
4.67
6.21
5.54
2.61
-0.33
0.18
6.41
18.05
32.40
45.85
55.31
59.71
60.01
58.49
57.40
57.89
59.58
60.97
60.43
57.03
51.04
43.71
36.53
30.55
25.87
21.85
17.61
12.67
7.31
2.46
-0.78
-1.72
-0.34
2.79
7.06
12.10
18.35
26.51
37.28
50.90
66.96
84.56
102.45
119.07
132.65
141.17
142.64
135.60
119.82
96.60
68.73
39.71
12.72
-10.02
-27.31
-38.74
-44.16
-43.75
-38.42
-30.36
-23.20
-21.91
-31.16
-53.24
-86.09
-123.07
-154.78
-172.88
-173.25
-157.98
-134.24
-110.76
-93.86
-84.83
-80.03
-73.50
-60.25
-38.62
-10.28
21.41
53.55
84.68
114.28
141.23
162.81
175.13
175.00
161.89
139.09
112.84
90.26
76.89
75.16
84.06
99.98
117.82
132.25
138.74
134.51
119.16
94.74
64.69
32.78
2.49
-22.98
-40.62
-47.97
-44.18
-31.17
-13.59
2.99
15.06
23.56
33.72
52.07
82.39
122.78
165.98
202.56
224.97
230.10
219.14
195.71
163.80
126.66
86.79
46.18
5.89
-34.33
-76.03
-120.98
-169.50
-219.09
-264.84
-301.31
-324.66
-334.21
-332.56
-324.52
-315.51
-310.07
-310.64
-316.91
-325.87
-332.59
-332.01
-321.10
-300.11
-272.31
-242.47
-214.71
-191.45
-173.62
-161.81
-156.69
-158.23
-164.60
-171.45
-172.84
-163.23
-139.38
-101.08
-50.76
7.54
68.64
126.29
173.25
202.52
209.57
194.60
163.49
126.52
95.08
77.95
78.66
94.99
120.57
147.52
169.06
181.03
182.22
173.70
157.68
136.64
112.81
88.22
64.98
45.26
30.72
22.00
18.21
17.22
16.65
14.89
11.66
7.83
4.63
2.67
1.65
0.54
-1.60
-5.00
-8.94
-12.18
-13.62
-12.66
-8.94
-1.74
10.34
28.79
54.18
85.13
118.21
149.01
173.77
190.73
200.50
205.19
207.03
207.21
205.52
200.86
192.12
178.90
161.72
141.87
120.85
100.06
80.44
62.42
46.03
31.23
18.15
7.12
-1.53
-7.79
-12.15
-15.53
-18.98
-23.26
-28.56
-34.56
-40.63
-46.10
-50.49
-53.61
-55.48
-56.46
-57.04
-57.68
-58.62
-59.69
-60.41
-60.14
-58.42
-55.19
-51.00
-46.70
-43.09
-40.57
-38.97
-37.70
-36.12
-33.86
-31.07
-28.64
-27.63
-28.79
-32.18
-36.96
-41.72
-44.96
-45.58
-43.08
-38.21
-32.13
-26.06
-20.96
-17.45
-15.88
-16.22
-17.88
-19.72
-21.62
-23.70
-26.49
-30.63
-36.59
-44.48
-53.82
-63.56
-72.34
-81.15
-91.74
-106.20
-125.64
-149.53
-175.80
-201.50
-223.71
-240.35
-253.50
-266.56
-282.94
-303.98
-328.81
-355.37
-381.65
-406.09
-410.74
-380.98
-307.87
-193.60
-51.96
95.80
227.28
324.58
378.51
390.69
369.80
331.12
287.64
248.95
220.63
204.22
198.19
199.54
205.10
210.26
211.32
205.75
193.68
177.24
159.47
143.00
129.64
120.24
113.69
108.54
103.48
98.29
93.50
89.61
86.19
81.84
74.46
61.42
41.07
13.64
-18.13
-49.51
-75.12
-90.44
-93.11
-83.68
-65.81
-45.27
-28.50
-20.60
-23.94
-37.38
-56.67
-75.64
-88.23
-90.45
-81.56
-64.07
-42.49
-21.58
-4.86
6.13
11.61
12.78
11.10
7.94
4.51
1.89
0.90
1.77
3.89
5.99
6.61
4.73
0.25
-6.12
-13.19
-19.89
-25.62
-30.36
-34.42
-38.12
-41.54
-44.35
-46.02
-45.90
-43.53
-38.80
-31.98
-23.75
-15.06
-6.96
-0.45
3.78
5.56
5.30
3.86
2.29
1.31
1.07
1.17
1.00
0.19
-1.13
-2.49
-3.50
-4.21
-5.30
-7.71
-12.17
-18.67
-26.43
-34.16
-40.72
-45.77
-49.95
-54.69
-61.53
-71.31
-83.60
-96.63
-107.77
-114.30
-114.37
-107.55
-95.12
-79.87
-65.49
-55.70
-52.94
-57.25
-65.57
-72.41
-71.74
-59.74
-36.90
-8.59
16.81
31.09
29.34
11.71
-17.12
-50.04
-80.12
-102.64
-115.90
-121.21
-121.74
-120.99
-121.13
-121.71
-119.30
-108.41
-83.52
-41.57
16.38
84.88
155.32
218.14
264.87
289.35
288.19
260.90
210.21
142.44
67.31
-3.08
-56.72
-84.76
-84.06
-58.09
-15.77
31.66
73.99
104.65
121.44
125.77
121.21
111.89
101.40
92.17
85.21
80.31
76.56
73.11
69.46
65.27
59.66
50.67
35.51
11.84
-20.63
-59.11
-98.13
-131.34
-153.68
-162.99
-160.24
-148.51
-131.40
-111.81
-91.36
-70.55
-49.31
-27.54
-5.54
15.67
34.39
48.49
56.00
55.68
47.67
33.59
16.30
-0.65
-13.72
-20.04
-17.94
-7.23
10.70
33.11
56.22
76.00
88.94
92.88
87.57
74.63
57.15
38.83
23.21
12.94
9.45
12.83
21.98
34.88
49.04
62.06
72.17
78.63
81.64
82.06
80.87
78.80
76.31
73.64
71.06
68.98
67.74
67.37
67.42
67.07
65.39
61.82
56.37
49.62
42.42
35.51
29.13
23.02
16.56
9.15
0.48
-9.29
-19.63
-29.62
-38.05
-43.46
-44.38
-39.69
-29.10
-13.46
5.30
24.66
42.15
55.95
65.11
69.42
69.06
64.41
55.97
44.54
31.32
17.79
5.38
-4.89
-12.59
-17.84
-21.07
-22.73
-23.10
-22.20
-19.90
-16.18
-11.30
-5.92
-1.05
2.19
2.90
0.76
-3.84
-9.89
-16.16
-21.68
-26.07
-29.57
-32.67
-35.72
-38.54
-40.47
-40.76
-38.97
-35.32
-30.74
-26.70
-24.93
-27.11
-34.76
-48.99
-70.16
-97.28
-127.69
-157.34
-181.85
-198.07
-205.31
-205.43
-201.76
-197.29
-193.23
-188.62
-181.42
-169.84
-153.48
-133.34
-110.76
-86.13
-58.36
-25.52
14.03
60.31
111.59
165.28
219.32
272.95
326.41
379.69
431.65
479.50
519.31
547.10
559.39
553.14
525.57
474.65
400.94
309.77
212.05
122.61
56.52
24.14
27.26
58.45
103.36
145.53
171.29
172.72
148.50
103.91
48.81
-5.06
-46.06
-65.18
-57.64
-23.95
29.11
89.42
143.55
180.40
194.24
186.00
161.08
127.52
93.61
65.04
43.68
29.47
21.42
17.91
17.23
15.56
6.47
-11.68
-32.82
-53.19
-71.37
-86.85
-101.05
-116.55
-139.34
-173.73
-219.74
-273.77
-330.69
-385.20
-433.84
-475.69
-511.69
-548.61
-593.15
-649.09
-716.08
-789.85
-862.44
-924.08
-965.66
-959.00
-891.11
-767.78
-612.50
-454.79
-316.53
-205.99
-121.16
-59.20
-11.63
22.87
44.13
53.97
57.30
60.42
68.65
82.63
100.81
120.89
137.40
146.78
148.73
145.95
142.37
141.06
143.29
149.07
158.04
167.47
175.38
181.23
186.09
191.95
200.72
213.51
230.49
250.78
271.28
288.72
300.87
307.62
310.86
313.63
318.78
327.81
340.27
353.22
362.87
366.07
361.23
348.42
328.55
302.82
272.75
241.01
212.00
191.50
184.49
192.35
210.84
230.87
242.38
238.85
220.60
194.28
169.08
151.82
143.73
140.79
136.95
127.92
113.03
94.64
75.87
58.20
40.74
21.10
-3.14
-33.02
-68.05
-106.77
-147.79
-190.34
-233.97
-277.79
-320.33
-360.25
-397.20
-432.17
-466.33
-499.20
-527.26
-544.34
-543.73
-521.37
-478.14
-419.82
-354.86
-291.03
-232.90
-181.13
-133.70
-88.04
-42.74
1.76
43.62
80.52
110.93
135.10
155.32
175.14
197.39
222.48
247.43
266.96
275.80
271.43
255.20
231.31
204.70
179.27
157.69
142.26
135.70
140.56
157.25
182.25
208.06
225.93
229.77
219.10
198.95
177.14
160.51
152.50
153.05
160.12
171.22
183.42
192.73
193.75
180.52
148.88
98.42
32.77
-41.76
-118.12
-190.10
-252.55
-301.67
-335.92
-357.52
-372.96
-391.01
-418.51
-456.02
-496.26
-526.82
-536.05
-518.98
-479.44
-427.47
-373.53
-323.43
-276.59
-228.12
-172.97
-109.21
-39.19
31.45
95.34
145.17
175.38
183.45
170.92
143.55
109.81
78.46
55.83
44.16
42.01
45.93
52.63
60.29
68.49
77.22
85.95
93.51
98.78
101.75
103.86
107.38
113.97
123.38
132.87
137.94
133.85
117.61
89.20
51.88
11.18
-26.94
-57.74
-78.64
-88.90
-88.63
-78.00
-57.13
-26.99
9.45
46.79
78.19
97.67
102.20
92.86
74.09
51.62
30.28
12.89
0.42
-6.97
-9.00
-5.14
4.97
20.96
41.55
64.78
88.69
111.75
133.15
152.58
169.91
185.00
197.49
206.84
212.30
213.09
208.85
199.90
187.44
173.20
158.88
145.46
132.91
120.44
107.19
92.77
77.55
62.36
48.07
35.11
23.43
12.68
2.59
-6.94
-15.83
-23.97
-31.33
-37.96
-43.93
-49.29
-54.03
-58.02
-61.12
-63.13
-63.95
-63.62
-62.36
-60.48
-58.13
-55.30
-51.95
-48.28
-44.93
-42.97
-43.47
-46.99
-53.18
-60.80
-68.24
-74.28
-78.51
-81.29
-83.41
-85.55
-88.03
-90.81
-93.68
-96.43
-99.09
-101.53
-103.35
-103.87
-102.45
-98.89
-93.57
-87.41
-81.48
-77.03
-74.64
-73.91
-73.53
-71.93
-68.07
-62.00
-54.99
-49.16
-47.62
-52.48
-63.62
-78.43
-92.83
-103.06
-107.21
-105.96
-102.15
-101.00
-106.79
-120.77
-140.74
-162.23
-180.77
-193.61
-200.35
-202.62
-204.87
-211.09
-222.91
-238.84
-254.69
-264.82
-263.33
-245.00
-194.78
-107.16
9.96
135.10
241.82
311.18
338.45
331.81
306.42
277.83
255.36
240.74
232.44
228.13
225.71
223.29
218.99
211.21
198.88
180.02
154.01
123.16
91.71
64.08
43.46
30.82
25.17
24.38
25.12
24.77
22.44
18.84
15.68
14.57
16.34
20.75
26.71
32.24
35.45
35.20
31.11
23.55
13.40
1.91
-9.44
-19.13
-26.14
-29.96
-30.60
-28.57
-24.73
-20.14
-15.94
-13.29
-13.05
-15.47
-20.03
-25.33
-29.43
-30.55
-27.87
-22.10
-15.51
-10.82
-9.58
-10.75
-10.60
-3.99
12.80
39.36
70.18
95.75
105.89
93.13
55.34
-3.24
-72.57
-139.10
-189.19
-212.77
-206.68
-175.43
-130.31
-86.01
-55.63
-46.31
-57.23
-80.82
-105.84
-121.61
-120.50
-100.44
-65.71
-26.13
5.87
18.71
5.46
-33.09
-88.11
-143.73
-182.43
-191.38
-167.00
-115.07
-47.80
21.03
83.35
131.78
163.66
180.20
183.22
172.78
149.70
118.16
85.28
58.56
41.49
32.37
24.63
9.90
-17.09
-54.72
-95.43
-129.54
-148.34
-147.67
-128.45
-96.64
-57.65
-21.92
3.19
19.04
30.27
41.94
57.24
77.46
100.15
122.80
142.82
159.05
170.85
176.43
172.91
156.61
124.30
74.79
10.50
-62.74
-135.56
-197.78
-241.90
-264.85
-268.62
-258.94
-242.95
-226.44
-212.75
-201.90
-191.81
-180.46
-166.76
-150.86
-133.61
-115.75
-97.13
-77.16
-54.98
-30.39
-4.34
21.38
44.83
64.52
79.85
91.09
99.00
104.59
108.84
112.47
116.06
119.98
124.45
129.53
135.14
140.99
146.67
151.65
155.46
157.72
158.28
157.15
154.46
150.37
144.99
138.46
130.84
122.22
112.65
102.12
90.59
78.00
64.41
50.06
35.52
21.67
9.60
0.40
-5.11
-6.65
-4.70
-0.47
4.30
7.80
8.70
6.60
2.17
-3.15
-7.65
-10.05
-9.86
-7.42
-3.52
0.95
5.42
9.64
13.52
17.06
20.36
23.67
27.47
32.33
38.73
46.95
56.91
68.29
80.45
92.55
103.52
112.20
117.42
118.02
112.83
100.68
80.55
52.08
16.11
-24.94
-67.36
-107.09
-141.01
-167.74
-187.61
-201.66
-210.28
-212.50
-206.01
-188.23
-157.68
-115.02
-63.35
-7.73
45.93
92.05
126.45
146.95
153.39
147.35
131.51
108.90
82.30
53.86
25.12
-2.77
-28.82
-51.96
-71.33
-86.54
-97.97
-106.49
-113.15
-118.55
-122.68
-125.03
-125.12
-123.09
-119.82
-116.42
-113.21
-109.44
-103.78
-95.59
-85.77
-76.23
-68.66
-62.66
-55.30
-42.11
-19.84
11.10
46.42
80.11
108.23
130.41
149.45
168.24
187.78
205.83
217.97
220.33
212.35
198.44
185.05
177.52
176.75
180.79
186.06
189.65
190.63
190.48
193.59
203.54
221.85
246.88
278.07
315.88
360.18
407.43
449.68
478.54
487.02
473.80
442.81
404.46
368.85
340.59
317.48
283.01
230.83
166.71
116.58
89.15
80.33
74.64
58.19
23.09
-29.50
-89.14
-143.79
-185.20
-213.38
-230.99
-241.81
-249.04
-255.75
-264.54
-276.22
-291.40
-309.93
-331.50
-351.57
-362.94
-358.67
-335.92
-298.31
-254.86
-218.37
-200.63
-208.19
-237.08
-274.04
-301.41
-304.57
-277.80
-226.16
-163.69
-107.61
-71.95
-62.25
-75.29
-102.63
-135.72
-169.79
-204.39
-242.04
-285.57
-336.31
-392.95
-452.03
-508.69
-557.57
-593.90
-614.36
-618.03
-606.60
-583.47
-552.39
-516.27
-476.85
-435.35
-393.16
-352.12
-313.77
-278.45
-244.64
-209.48
-170.09
-125.01
-74.94
-22.56
28.43
74.81
114.91
148.93
178.64
206.46
234.40
263.46
293.71
324.87
356.73
389.07
420.81
449.29
470.33
479.41
473.62
453.15
421.56
384.38
346.99
312.76
282.55
255.53
230.54
207.07
185.30
165.43
147.11
129.28
110.79
91.18
70.99
51.65
34.87
21.81
12.55
6.01
0.37
-6.23
-14.84
-25.06
-35.05
-42.03
-43.40
-37.76
-25.58
-8.96
9.12
25.97
40.02
50.98
59.45
66.10
71.03
73.54
72.38
66.50
55.68
40.94
24.45
8.90
-3.39
-11.04
-13.87
-12.53
-7.95
-0.91
8.30
19.74
33.54
49.50
66.97
84.91
102.04
117.07
128.72
135.84
137.88
135.64
131.70
129.92
133.94
145.05
160.64
174.66
180.32
173.67
156.28
135.05
118.88
113.91
120.51
133.61
146.07
152.61
151.93
145.67
135.45
120.39
96.75
59.92
7.09
-60.77
-138.83
-219.36
-293.43
-352.49
-390.06
-403.54
-395.18
-371.41
-340.18
-307.62
-275.68
-242.38
-204.59
-161.16
-114.81
-71.41
-37.41
-17.00
-10.60
-15.24
-25.94
-37.30
-44.54
-44.40
-35.63
-19.40
1.04
21.58
38.87
51.90
62.04
72.12
84.72
101.11
120.64
141.32
160.71
176.42
186.56
190.06
187.58
182.09
178.57
182.25
195.68
216.52
237.21
248.12
242.53
220.69
190.34
163.18
149.14
151.91
167.97
189.02
206.24
213.31
207.32
187.78
155.17
110.59
56.10
-5.13
-69.52
-134.50
-199.63
-265.98
-333.93
-400.74
-459.65
-501.72
-518.91
-507.17
-467.70
-406.37
-332.06
-254.87
-185.41
-133.96
-108.93
-114.23
-146.89
-196.75
-249.49
-292.08
-317.81
-328.26
-330.66
-332.56
-337.07
-341.15
-337.99
-321.47
-289.84
-246.34
-197.14
-147.68
-100.29
-53.86
-5.59
46.85
103.99
164.44
225.40
283.24
333.74
372.41
395.38
400.49
388.42
362.63
328.38
290.91
253.99
219.37
187.35
157.77
130.81
106.94
86.45
68.87
53.02
37.47
21.38
4.95
-10.58
-23.26
-31.13
-32.75
-27.76
-17.02
-2.57
12.83
26.45
36.26
41.51
42.69
41.16
38.36
35.33
32.50
30.18
29.09
30.61
36.52
48.18
65.61
87.17
109.99
130.88
147.36
158.36
164.18
166.12
165.89
165.06
164.69
165.16
166.12
166.63
165.46
161.67
154.93
145.72
135.01
123.84
112.93
102.44
92.24
82.13
72.10
62.35
53.13
44.52
36.29
27.99
19.04
9.08
-1.89
-13.40
-24.57
-34.48
-42.54
-48.64
-53.23
-57.02
-60.59
-64.17
-67.53
-70.28
-72.08
-72.84
-72.76
-72.34
-72.23
-73.11
-75.52
-79.78
-86.00
-93.78
-102.05
-109.11
-113.05
-112.36
-106.70
-97.04
-85.32
-73.95
-64.62
-57.87
-53.18
-49.53
-46.05
-42.32
-38.15
-33.32
-28.02
-22.42
-16.83
-11.63
-7.24
-3.99
-2.02
-1.40
-2.25
-6.10
-14.41
-27.77
-45.21
-64.29
-82.08
-96.34
-106.18
-112.20
-117.82
-126.21
-138.86
-155.03
-172.63
-189.96
-206.99
-224.96
-244.89
-268.52
-295.00
-321.06
-342.50
-356.10
-360.60
-355.52
-339.10
-294.09
-210.07
-89.77
46.80
170.08
255.65
294.60
294.12
270.83
242.23
217.60
199.21
186.21
178.01
174.81
175.88
177.98
176.00
165.07
141.08
104.97
62.05
19.86
-15.29
-41.14
-59.55
-73.94
-86.42
-97.40
-104.75
-105.82
-99.38
-86.71
-70.96
-55.41
-41.66
-29.15
-16.66
-2.92
12.52
29.43
47.04
63.73
76.72
82.11
76.10
56.98
27.66
-4.19
-28.58
-37.72
-30.46
-13.78
-0.01
-1.30
-23.25
-61.76
-104.54
-135.93
-143.04
-120.05
-69.07
1.79
81.63
159.79
227.73
279.65
312.57
326.05
321.26
300.30
265.51
219.37
164.69
104.93
44.25
-12.87
-62.29
-102.06
-132.92
-157.40
-177.46
-192.50
-198.92
-191.58
-166.25
-121.68
-61.41
6.42
71.12
123.12
156.45
169.72
165.64
149.81
129.80
112.19
100.43
93.69
88.45
80.56
67.19
48.14
20.56
-13.92
-50.10
-82.69
-111.13
-139.24
-171.50
-208.86
-246.99
-278.78
-296.88
-297.65
-279.67
-247.37
-208.42
-170.86
-140.68
-120.53
-109.77
-104.83
-101.58
-97.00
-90.12
-80.87
-69.32
-55.50
-39.56
-22.11
-3.61
15.28
33.79
51.39
68.88
88.43
112.54
142.19
175.41
207.32
231.37
241.64
235.00
212.51
178.81
140.04
101.53
66.44
35.77
9.26
-13.43
-31.98
-45.03
-50.57
-46.70
-32.44
-8.39
23.17
58.66
94.16
126.31
152.85
172.54
184.57
188.01
181.64
164.54
136.93
100.86
60.28
20.24
-14.18
-39.08
-52.44
-54.26
-46.37
-31.77
-14.05
3.28
17.29
26.13
29.36
27.83
23.25
17.55
12.36
8.75
7.26
7.98
10.86
15.95
23.31
32.82
43.64
54.31
63.32
70.21
76.03
83.85
97.86
121.71
156.78
201.15
250.25
298.40
340.20
370.25
383.58
376.72
349.30
305.11
251.87
198.88
153.82
120.03
94.41
70.01
40.56
4.00
-37.19
-78.22
-114.98
-146.09
-172.78
-199.11
-229.74
-267.40
-312.05
-362.56
-418.52
-481.05
-551.63
-616.31
-656.71
-655.98
-606.51
-513.26
-390.77
-256.45
-125.46
-8.56
85.34
155.35
199.87
217.38
209.25
180.72
140.63
99.32
67.01
51.14
52.47
64.28
73.92
72.84
56.86
26.30
-15.06
-59.43
-98.08
-123.63
-132.78
-126.69
-109.63
-88.55
-71.11
-64.79
-76.72
-110.77
-165.62
-234.30
-305.01
-364.12
-401.42
-413.31
-395.55
-353.91
-300.46
-247.84
-204.13
-171.32
-147.41
-131.47
-120.84
-113.40
-108.10
-103.00
-95.38
-82.88
-65.94
-46.19
-26.22
-7.93
7.69
20.01
29.78
38.83
49.23
62.13
77.26
92.57
105.22
112.40
112.29
105.81
96.57
89.54
88.90
96.55
111.63
131.42
152.72
173.06
191.80
209.84
228.64
249.38
272.78
299.56
330.90
367.98
410.65
455.99
497.66
527.08
536.72
523.73
491.89
450.46
410.19
378.69
357.56
342.79
327.88
307.54
279.55
244.67
204.64
161.08
115.94
72.51
35.64
10.15
-1.60
-1.70
3.83
7.58
3.97
-8.95
-29.81
-56.07
-86.11
-120.03
-158.97
-204.21
-256.29
-314.87
-378.50
-443.81
-504.70
-552.84
-580.14
-582.45
-562.26
-528.18
-491.13
-459.08
-433.64
-409.83
-379.64
-336.73
-279.94
-213.85
-146.62
-86.49
-38.71
-4.01
20.96
42.03
65.52
96.36
137.22
188.18
246.87
308.78
367.98
417.69
451.56
465.49
458.98
435.28
400.25
360.19
320.44
284.82
255.93
234.94
221.31
212.21
203.27
190.66
173.48
154.91
140.90
136.95
144.86
161.29
178.86
189.20
186.01
166.72
132.37
86.38
33.21
-22.93
-78.78
-132.81
-185.55
-239.16
-296.49
-359.24
-426.25
-492.73
-550.99
-592.67
-611.60
-605.89
-578.27
-534.98
-482.69
-426.23
-367.48
-306.19
-241.90
-175.64
-110.46
-50.51
0.56
40.98
71.18
93.29
110.15
124.52
138.41
152.79
167.35
180.54
190.11
194.11
191.92
184.70
174.81
164.51
154.50
143.41
128.44
107.16
79.01
45.85
11.26
-21.18
-49.17
-72.11
-90.25
-103.75
-112.06
-114.01
-108.91
-97.37
-81.76
-65.77
-53.24
-46.74
-46.71
-51.34
-57.44
-61.75
-62.17
-58.32
-51.35
-42.95
-34.34
-25.60
-15.71
-3.34
12.32
30.96
51.30
71.85
91.90
111.96
133.59
158.36
186.83
217.85
248.80
276.43
297.89
311.42
316.44
313.21
302.51
285.40
263.25
237.78
210.90
184.36
159.31
136.13
114.50
93.80
73.47
53.27
33.28
13.75
-4.92
-22.19
-37.32
-49.39
-57.65
-61.82
-62.44
-60.88
-59.03
-58.64
-60.82
-65.74
-72.75
-80.72
-88.46
-94.96
-99.56
-101.94
-102.12
-100.50
-97.70
-94.49
-91.56
-89.23
-87.44
-85.79
-83.77
-81.09
-77.94
-74.93
-72.90
-72.51
-73.80
-76.18
-78.65
-80.18
-80.11
-78.32
-75.08
-71.02
-66.64
-62.19
-57.54
-52.39
-46.41
-39.46
-31.81
-24.16
-18.00
-14.85
-15.84
-21.12
-29.71
-39.77
-49.20
-56.34
-60.28
-61.64
-61.51
-60.95
-60.62
-60.71
-61.46
-63.45
-67.64
-74.89
-85.70
-99.26
-113.55
-126.25
-135.59
-140.66
-140.86
-135.23
-116.01
-77.72
-19.87
50.47
120.54
177.16
211.86
224.51
221.19
210.05
198.21
190.90
190.45
196.16
204.30
209.70
206.96
192.54
166.23
130.87
91.37
52.83
19.10
-8.28
-29.45
-45.57
-57.72
-66.05
-70.17
-69.50
-64.00
-54.76
-43.96
-34.40
-28.89
-29.57
-37.34
-51.78
-71.35
-93.96
-117.70
-141.34
-164.32
-186.35
-206.72
-223.89
-235.76
-240.42
-237.04
-226.38
-210.36
-191.24
-170.76
-149.96
-129.29
-109.07
-89.37
-69.57
-48.25
-23.10
7.83
44.28
82.53
115.70
136.22
139.78
128.43
110.15
95.55
92.79
102.98
119.04
129.36
124.19
101.60
69.26
39.79
24.74
29.66
53.11
89.66
133.75
181.68
230.66
276.54
310.98
323.89
308.17
263.97
199.95
130.08
68.08
19.88
-11.84
-30.20
-42.11
-55.21
-75.17
-102.45
-131.94
-155.54
-165.03
-151.83
-113.74
-54.76
15.91
86.40
145.28
184.39
201.07
198.87
186.35
172.55
163.83
161.53
162.08
159.56
149.00
128.83
101.38
70.86
40.06
9.33
-23.05
-59.43
-101.56
-149.84
-203.33
-259.70
-314.96
-364.17
-402.02
-423.62
-425.66
-407.41
-371.56
-324.15
-273.77
-230.05
-201.77
-194.46
-208.79
-240.00
-279.09
-315.49
-340.09
-347.63
-337.70
-314.02
-282.51
-249.34
-219.14
-194.21
-174.56
-158.80
-144.98
-131.46
-117.26
-101.77
-84.78
-66.47
-47.15
-27.09
-6.28
15.90
40.73
69.83
104.33
143.74
185.33
224.38
255.33
273.56
277.16
267.67
249.80
230.08
215.10
209.84
216.69
235.08
262.00
293.15
324.41
353.01
378.17
400.66
421.92
443.15
464.71
486.39
507.59
527.38
544.05
554.54
554.82
540.94
510.92
465.88
409.71
347.17
281.39
212.56
139.53
62.86
-12.76
-78.76
-126.08
-149.40
-149.98
-135.37
-116.17
-102.25
-100.52
-114.68
-145.88
-192.91
-251.11
-311.44
-361.27
-387.84
-383.33
-348.82
-294.34
-234.66
-182.86
-145.87
-123.44
-111.27
-105.54
-106.22
-117.48
-144.67
-190.31
-251.54
-320.14
-385.08
-436.20
-467.20
-476.90
-468.20
-446.05
-415.30
-379.42
-339.98
-297.28
-251.37
-202.95
-153.49
-105.37
-61.62
-25.48
0.45
15.40
21.56
24.06
29.55
43.74
68.81
102.78
140.45
175.64
203.54
221.28
227.59
221.64
203.11
172.20
130.02
78.60
21.05
-37.71
-91.66
-134.29
-160.45
-166.62
-152.45
-120.92
-77.77
-29.59
19.37
65.84
106.98
138.43
158.59
169.28
176.25
186.24
204.43
233.98
272.75
314.99
351.95
380.11
401.15
420.06
439.80
459.22
476.41
487.95
491.64
484.37
468.48
449.17
431.98
418.60
389.88
331.89
238.51
136.19
37.07
-51.35
-129.50
-191.37
-230.33
-243.17
-230.38
-200.22
-166.46
-146.89
-151.20
-178.97
-221.00
-266.17
-305.78
-333.58
-347.83
-349.57
-343.93
-334.37
-323.39
-312.21
-301.74
-291.63
-278.92
-260.90
-236.98
-210.94
-186.31
-164.47
-143.40
-119.82
-91.78
-59.93
-28.17
-1.11
18.23
31.61
44.21
61.04
83.41
108.30
131.07
148.68
161.84
174.00
188.94
207.80
228.06
244.88
254.02
254.13
246.78
234.72
220.21
204.30
187.75
172.05
159.20
150.05
142.43
131.19
110.77
79.59
42.53
10.22
-5.56
2.32
32.46
75.05
116.15
143.32
149.91
136.09
106.63
67.70
24.03
-21.98
-69.85
-119.77
-172.02
-227.05
-285.66
-348.44
-414.54
-480.49
-539.89
-584.80
-608.15
-606.52
-581.31
-538.08
-484.20
-426.14
-367.80
-310.28
-253.03
-195.38
-137.80
-82.11
-30.86
13.79
50.95
81.26
106.24
127.13
143.90
155.68
162.12
164.86
167.80
175.65
191.31
213.91
238.70
259.12
269.86
268.98
257.99
240.20
218.67
194.91
169.31
142.37
115.67
91.82
73.27
60.79
52.70
45.41
34.86
18.29
-4.62
-31.81
-59.89
-85.56
-106.51
-121.71
-130.83
-133.66
-129.76
-118.83
-101.28
-78.70
-53.73
-29.35
-8.02
8.93
21.46
30.33
36.60
41.23
44.98
48.54
52.64
58.05
65.11
73.50
82.14
89.65
94.89
97.43
97.56
95.86
92.96
89.42
85.97
83.63
83.54
86.38
91.76
98.08
103.01
104.44
101.35
94.09
84.02
72.70
61.24
50.08
39.29
28.94
19.31
10.73
3.40
-2.77
-8.08
-12.84
-17.21
-21.13
-24.47
-27.27
-29.80
-32.57
-36.17
-40.99
-47.01
-53.69
-60.12
-65.33
-68.59
-69.68
-68.93
-67.24
-65.67
-65.12
-65.98
-68.04
-70.68
-73.20
-75.12
-76.32
-77.15
-78.00
-78.99
-79.65
-79.07
-76.12
-69.82
-59.68
-45.80
-29.36
-11.89
5.26
21.40
36.60
51.18
65.19
77.95
87.93
91.95
86.98
71.60
47.24
18.15
-9.98
-32.09
-45.46
-50.49
-52.14
-56.85
-69.81
-92.61
-122.65
-154.83
-183.89
-206.41
-221.82
-234.59
-250.77
-275.30
-309.62
-350.87
-393.22
-429.59
-452.79
-441.92
-381.56
-267.89
-115.24
47.21
187.63
283.65
328.26
329.27
304.23
270.62
240.92
219.70
205.15
193.40
181.96
171.05
162.55
158.17
156.15
152.68
143.89
128.38
108.23
87.80
71.54
62.25
60.28
62.82
66.16
67.27
65.25
61.44
58.23
57.60
60.13
64.91
69.44
70.96
67.51
58.65
45.45
29.76
13.50
-1.78
-14.95
-25.27
-32.05
-34.36
-31.09
-21.56
-6.51
11.06
25.98
32.17
24.88
2.84
-30.59
-68.01
-100.30
-119.73
-122.37
-108.94
-84.13
-54.76
-27.91
-9.39
-2.57
-8.13
-24.20
-46.93
-71.31
-92.37
-106.34
-111.56
-108.62
-99.23
-85.53
-69.52
-52.62
-35.61
-18.58
-1.41
15.62
31.19
43.50
50.47
50.13
41.94
27.57
10.75
-4.15
-13.85
-17.26
-13.99
-3.34
15.83
44.58
82.38
125.98
169.63
206.72
227.33
225.38
202.07
165.10
123.89
84.36
48.04
14.56
-15.89
-42.34
-64.15
-82.60
-100.78
-121.60
-145.69
-169.96
-188.47
-195.29
-187.19
-164.19
-126.26
-78.32
-26.97
21.14
60.44
86.67
96.99
90.68
70.44
42.32
13.64
-8.63
-20.07
-19.73
-9.66
6.22
22.91
35.13
37.68
25.91
-2.11
-44.08
-93.09
-139.22
-172.58
-186.40
-178.64
-151.66
-110.67
-61.36
-8.88
42.23
87.55
122.80
144.64
151.65
145.17
128.91
107.80
86.45
68.02
54.14
45.40
41.86
42.76
47.08
53.84
62.54
73.38
87.03
104.27
125.77
152.20
183.03
217.43
254.34
291.99
327.05
354.55
369.11
367.36
349.81
318.99
279.51
236.34
193.42
152.63
113.59
74.75
34.93
-6.03
-50.14
-99.59
-156.26
-220.52
-291.40
-367.53
-447.58
-529.94
-595.91
-627.91
-616.89
-568.59
-498.70
-423.52
-354.16
-296.08
-250.87
-218.00
-197.87
-189.11
-187.36
-184.48
-171.07
-140.86
-93.89
-36.66
20.57
65.52
93.60
105.59
107.40
107.11
110.95
119.65
130.60
137.08
130.43
104.08
55.66
-10.95
-86.30
-157.87
-214.14
-247.55
-256.49
-245.23
-221.16
-192.32
-164.09
-140.90
-124.98
-116.76
-115.10
-118.25
-124.22
-130.54
-134.59
-134.24
-128.69
-118.56
-105.82
-92.70
-81.07
-71.72
-64.05
-56.67
-48.29
-38.49
-27.62
-16.71
-6.63
2.08
8.96
14.44
19.78
26.23
34.66
45.58
59.09
75.92
96.49
119.27
142.84
166.55
189.47
210.65
229.41
246.03
263.76
286.40
313.55
343.68
374.85
402.56
421.14
425.92
415.50
395.80
376.16
361.13
354.63
360.12
376.39
398.72
421.04
437.94
449.59
457.40
456.48
445.36
429.55
416.25
412.09
420.00
412.39
364.48
301.77
238.17
168.02
97.12
33.87
-15.48
-49.81
-72.99
-87.56
-96.31
-108.36
-130.07
-162.60
-207.09
-264.17
-332.94
-409.80
-484.88
-546.26
-587.79
-604.19
-590.66
-547.68
-481.36
-402.41
-323.49
-253.98
-198.81
-160.36
-134.56
-112.30
-85.48
-50.44
-8.90
33.64
71.62
100.73
116.85
117.75
103.48
76.01
40.56
6.29
-15.22
-13.61
15.42
66.86
128.24
184.22
222.02
235.31
225.11
197.28
158.56
113.96
66.71
20.34
-19.54
-45.52
-51.64
-37.39
-9.45
20.31
40.27
44.44
34.92
20.23
10.53
12.62
27.36
49.97
72.51
87.05
87.84
72.45
41.67
-1.47
-52.97
-109.10
-166.67
-222.32
-271.26
-307.52
-325.62
-323.25
-303.08
-271.89
-237.23
-203.69
-171.65
-138.62
-102.72
-65.53
-32.13
-8.70
0.79
-3.59
-18.14
-37.65
-57.57
-75.16
-89.21
-99.30
-105.12
-106.42
-103.30
-96.44
-87.18
-77.14
-67.72
-59.67
-52.91
-46.75
-40.22
-32.66
-23.97
-14.61
-5.40
2.96
10.10
16.05
20.94
24.72
26.98
27.05
24.31
18.59
10.51
1.54
-6.25
-10.86
-10.85
-5.90
3.24
15.25
28.81
42.98
57.13
70.71
83.27
94.79
105.98
118.11
132.25
148.28
164.53
178.27
187.00
189.82
187.91
183.78
179.73
176.51
172.94
166.90
156.81
142.70
126.34
110.27
96.56
85.98
77.98
71.07
63.76
55.11
44.97
33.73
22.02
10.44
-0.40
-9.87
-17.29
-22.06
-23.87
-22.90
-19.83
-15.64
-11.45
-8.22
-6.59
-6.74
-8.31
-10.50
-12.30
-12.92
-12.11
-10.32
-8.59
-8.06
-9.49
-12.89
-17.56
-22.38
-26.42
-29.15
-30.47
-30.62
-29.97
-28.81
-27.34
-25.63
-23.77
-22.06
-20.94
-21.00
-22.66
-26.08
-30.96
-36.64
-42.22
-46.80
-49.90
-51.24
-50.56
-47.68
-42.57
-35.74
-28.35
-22.18
-19.17
-21.55
-30.40
-45.02
-62.96
-81.23
-97.68
-111.93
-125.02
-138.22
-152.88
-168.27
-181.59
-189.22
-188.74
-180.35
-166.60
-150.90
-135.90
-124.82
-119.15
-118.67
-122.01
-127.71
-135.26
-145.26
-158.55
-175.55
-198.37
-227.63
-261.68
-296.64
-327.09
-347.01
-350.56
-332.98
-276.90
-177.84
-48.24
84.95
193.42
262.25
293.93
301.54
298.76
293.51
284.85
268.88
246.42
223.54
208.18
205.02
212.66
224.46
232.19
227.98
209.17
178.95
144.96
115.07
94.00
82.07
76.35
73.15
68.97
62.95
56.99
54.28
57.25
65.96
78.12
90.44
100.31
106.30
109.05
110.81
114.25
121.03
130.73
140.73
146.94
145.06
131.62
105.46
68.67
26.70
-12.66
-41.38
-53.83
-48.93
-30.90
-8.07
9.77
14.42
1.42
-29.31
-74.04
-126.65
-179.86
-226.24
-259.17
-274.32
-271.14
-253.74
-230.08
-209.48
-199.14
-201.31
-212.44
-224.61
-229.14
-219.89
-195.67
-160.32
-120.96
-85.03
-57.08
-37.10
-20.20
0.97
33.31
79.21
134.83
189.74
229.84
242.37
220.07
164.89
87.29
4.20
-66.38
-110.52
-123.11
-108.98
-79.96
-50.69
-32.11
-29.48
-37.46
-47.43
-50.22
-42.02
-27.09
-13.89
-13.25
-25.23
-45.89
-70.51
-96.06
-120.92
-141.54
-154.71
-153.21
-135.11
-103.90
-67.95
-34.98
-9.63
8.81
21.56
29.84
36.35
43.63
56.01
77.08
108.11
146.07
183.61
210.62
217.60
199.94
159.17
103.65
45.00
-5.54
-40.72
-58.47
-61.00
-52.00
-34.04
-8.34
24.95
64.84
108.62
151.87
189.76
218.52
236.48
244.37
244.02
237.29
225.18
207.95
185.83
160.19
134.32
113.37
102.76
106.09
122.75
147.27
170.78
184.03
180.73
159.56
124.08
81.13
38.56
3.28
-19.84
-28.09
-21.15
-0.96
28.63
62.96
98.06
132.44
166.63
201.88
238.06
272.10
298.28
310.26
303.61
277.13
234.59
181.11
121.75
59.40
-5.40
-72.56
-139.86
-201.31
-248.94
-272.66
-267.68
-236.48
-188.85
-138.89
-100.23
-81.71
-86.00
-112.54
-155.66
-212.32
-280.39
-356.61
-434.44
-503.64
-552.96
-574.33
-568.72
-540.03
-499.52
-458.35
-422.92
-392.77
-361.76
-322.46
-257.17
-185.46
-113.30
-52.93
-16.07
-10.14
-36.13
-88.43
-156.47
-227.56
-291.78
-337.71
-360.88
-361.60
-344.23
-315.38
-281.74
-248.49
-218.39
-193.73
-172.09
-152.34
-133.21
-113.19
-90.59
-63.77
-31.82
5.13
45.10
88.03
132.74
178.11
222.34
262.60
295.43
317.44
326.35
321.06
303.20
275.62
242.40
208.38
178.70
158.55
151.38
157.86
175.42
199.20
224.61
248.58
269.48
286.43
299.34
307.51
310.50
308.88
303.79
298.96
298.35
304.21
316.87
337.02
364.23
396.63
429.89
455.72
467.69
462.54
441.33
409.70
377.62
353.35
340.27
336.03
332.66
325.70
314.53
300.50
268.65
209.07
119.31
8.61
-89.30
-161.13
-203.17
-217.17
-212.54
-198.03
-180.11
-164.72
-156.93
-161.36
-184.44
-227.87
-289.23
-362.72
-439.45
-507.51
-556.16
-578.21
-571.75
-541.98
-495.89
-441.42
-386.26
-336.01
-292.12
-252.72
-213.82
-171.75
-126.06
-78.06
-30.87
11.79
47.76
77.66
103.39
125.82
142.79
148.69
138.24
109.72
67.21
20.58
-17.30
-34.77
-25.32
10.62
65.98
130.09
191.74
242.18
276.86
295.81
302.14
299.90
292.18
280.11
263.04
239.62
209.15
172.66
133.73
97.96
71.54
59.18
62.39
78.69
102.29
125.91
142.95
149.12
142.44
122.80
90.87
47.78
-4.56
-63.25
-124.74
-185.80
-244.64
-301.15
-356.08
-409.65
-460.38
-504.70
-537.59
-554.15
-551.06
-527.65
-485.98
-430.00
-364.43
-293.93
-222.77
-155.00
-94.47
-44.48
-7.10
17.48
31.28
38.17
42.95
49.93
61.47
77.38
95.07
110.76
121.15
124.79
122.29
115.52
106.17
94.76
80.60
62.79
41.67
19.42
-0.37
-14.23
-20.47
-19.90
-15.43
-10.57
-7.94
-8.19
-10.07
-11.21
-9.26
-2.66
9.05
25.48
45.72
68.50
92.05
113.87
130.93
140.50
141.19
133.87
121.62
108.72
99.13
95.07
96.59
101.96
108.78
115.13
120.25
124.40
128.22
132.07
135.62
138.18
139.15
138.58
137.31
136.75
138.39
143.30
151.85
163.76
178.02
193.00
206.26
214.67
214.82
203.98
181.23
148.24
109.16
69.47
34.30
6.84
-12.30
-24.67
-32.85
-39.19
-45.03
-50.70
-56.03
-60.77
-64.92
-68.56
-71.58
-73.55
-73.94
-72.39
-69.08
-64.82
-60.81
-58.17
-57.47
-58.44
-60.22
-61.68
-61.93
-60.66
-58.24
-55.53
-53.53
-53.04
-54.36
-57.32
-61.24
-65.14
-68.06
-69.44
-69.32
-68.39
-67.60
-67.77
-69.30
-71.94
-74.91
-77.25
-78.27
-77.86
-76.40
-74.73
-73.83
-75.04
-79.19
-86.09
-94.09
-100.15
-100.85
-93.47
-77.18
-53.52
-26.97
-2.62
15.55
26.00
29.51
28.03
23.34
16.49
7.82
-4.05
-20.01
-39.73
-61.66
-83.93
-105.82
-128.24
-152.68
-179.92
-210.75
-244.00
-277.28
-308.37
-335.97
-359.80
-378.88
-390.16
-377.09
-329.17
-247.15
-144.76
-41.19
50.01
125.27
186.82
235.86
269.51
281.68
271.18
245.70
219.43
205.47
207.63
218.84
226.95
223.17
205.84
180.76
157.07
139.51
128.40
120.88
113.62
105.15
96.08
87.03
77.95
68.23
57.39
45.92
34.81
24.90
16.67
10.30
5.36
1.15
-3.20
-8.79
-16.43
-25.85
-35.86
-44.26
-48.94
-49.44
-47.49
-45.92
-46.65
-48.64
-47.92
-39.77
-21.69
4.41
32.47
54.81
65.56
62.94
49.37
29.60
8.15
-12.46
-31.75
-50.05
-67.11
-81.39
-90.53
-92.86
-88.08
-78.00
-66.19
-56.61
-51.63
-51.25
-52.96
-53.00
-48.62
-38.59
-23.90
-7.05
9.45
24.99
40.38
56.67
73.27
86.58
92.92
90.82
83.00
76.02
77.94
93.36
120.85
153.56
182.11
201.43
212.47
220.25
224.20
221.28
205.98
174.66
135.42
93.38
53.29
17.55
-15.71
-50.35
-90.24
-136.82
-186.38
-230.26
-258.66
-263.03
-240.54
-196.18
-141.36
-89.10
-49.51
-26.46
-17.54
-17.64
-20.81
-23.14
-23.29
-21.12
-15.81
-5.36
12.39
37.97
68.37
98.18
120.87
130.92
125.47
104.91
72.14
31.29
-13.44
-58.62
-101.21
-138.61
-168.69
-190.05
-202.04
-204.87
-199.34
-186.78
-168.91
-147.49
-124.09
-99.85
-75.46
-51.33
-27.73
-4.97
16.53
36.21
53.38
67.22
76.86
81.73
81.88
78.26
72.45
66.01
59.56
52.37
42.63
28.60
9.86
-12.06
-34.03
-52.62
-65.47
-72.13
-73.95
-73.31
-72.46
-72.72
-74.27
-76.63
-79.26
-81.99
-84.98
-88.29
-91.49
-93.62
-93.62
-90.86
-85.52
-78.52
-70.90
-63.22
-55.20
-45.88
-34.17
-19.47
-2.03
17.08
36.24
53.75
68.00
77.75
82.10
80.61
73.35
60.93
44.60
25.87
6.30
-12.72
-30.10
-45.26
-58.27
-69.85
-80.96
-91.88
-101.61
-107.92
-108.16
-100.71
-86.13
-67.39
-48.66
-33.54
-23.23
-16.76
-12.03
-6.87
0.26
10.22
23.32
39.14
55.87
71.22
81.42
82.53
72.63
53.56
30.78
11.37
0.95
1.46
13.30
33.87
59.50
87.47
117.24
150.38
188.91
233.12
279.79
326.07
366.34
394.10
405.44
401.93
391.22
383.97
389.62
412.78
457.37
520.91
595.21
668.13
726.32
758.41
757.91
725.18
641.02
507.58
343.06
173.12
18.15
-113.41
-221.57
-307.88
-369.72
-410.35
-429.71
-431.31
-423.11
-414.92
-414.61
-425.99
-447.74
-477.20
-512.43
-548.02
-578.76
-600.20
-608.28
-599.56
-572.27
-527.76
-471.05
-409.71
-348.09
-287.68
-227.88
-167.61
-107.28
-49.99
-0.97
33.96
51.12
52.88
47.76
47.63
63.60
101.55
159.27
226.99
290.74
337.51
354.07
336.04
289.94
230.86
174.91
131.58
101.68
80.83
64.43
50.39
39.57
32.84
29.26
26.11
20.88
13.06
4.11
-4.13
-10.83
-15.98
-20.22
-24.17
-28.26
-32.62
-37.08
-40.87
-42.64
-40.78
-33.75
-21.51
-6.35
7.30
14.64
12.63
1.38
-16.34
-36.64
-56.01
-72.16
-83.84
-90.27
-90.64
-84.42
-71.87
-54.38
-34.30
-14.32
2.72
14.05
17.57
12.97
2.59
-8.83
-15.90
-15.05
-6.42
6.16
17.51
23.76
24.07
20.55
16.37
13.66
12.60
11.91
10.15
6.88
2.57
-2.04
-6.63
-11.29
-16.17
-20.89
-24.38
-25.35
-22.94
-17.14
-8.96
0.13
8.60
15.32
19.83
22.33
23.50
24.09
24.62
25.21
25.67
25.59
24.61
22.89
21.00
19.72
19.42
19.88
20.16
19.41
17.18
13.65
9.68
6.40
4.58
4.19
4.53
4.52
3.43
1.02
-2.96
-8.34
-14.83
-22.35
-31.56
-42.29
-54.85
-67.12
-77.20
-84.52
-89.56
-92.99
-94.50
-92.10
-82.54
-63.30
-36.63
-5.08
24.64
43.98
45.98
27.71
-9.48
-61.21
-122.83
-188.37
-250.51
-301.78
-334.62
-343.32
-326.84
-290.42
-244.24
-199.68
-164.30
-139.17
-120.30
-101.49
-77.90
-48.46
-15.41
18.27
51.03
83.61
117.72
153.73
189.82
222.48
247.89
263.61
269.46
267.06
259.03
247.77
234.51
219.67
203.48
186.44
169.46
153.57
139.45
127.15
115.92
104.45
91.48
76.36
59.60
43.36
31.12
26.47
31.46
45.31
64.07
81.89
93.21
94.91
87.31
73.68
58.47
45.50
36.82
32.84
33.23
37.76
46.62
60.00
77.47
97.63
118.38
137.66
153.95
166.64
175.79
181.69
184.37
183.53
178.85
170.43
158.97
145.58
131.27
116.58
101.50
85.76
69.26
52.33
35.59
19.67
4.84
-9.02
-22.29
-35.25
-47.89
-59.94
-70.99
-80.79
-89.34
-96.87
-103.64
-109.78
-115.20
-119.62
-122.75
-124.36
-124.54
-123.61
-122.06
-120.34
-118.76
-117.38
-116.14
-114.87
-113.32
-111.33
-108.82
-105.93
-103.02
-100.54
-98.71
-97.49
-96.30
-94.22
-90.45
-84.89
-78.29
-71.88
-66.82
-63.57
-62.01
-61.44
-61.02
-60.27
-59.19
-58.10
-57.17
-56.14
-54.30
-51.32
-47.00
-41.22
-33.93
-25.26
-15.52
-5.12
5.49
15.78
23.95
28.74
30.16
29.46
28.05
26.56
24.72
21.59
15.97
4.38
-15.02
-40.80
-68.48
-93.03
-111.14
-122.02
-127.05
-128.92
-134.28
-147.05
-165.94
-185.54
-200.70
-210.10
-216.10
-222.71
-233.07
-253.00
-283.89
-321.52
-358.19
-387.44
-406.34
-414.09
-410.09
-361.45
-255.21
-108.34
39.73
154.91
225.56
259.05
270.65
274.42
278.14
277.92
268.19
247.87
222.10
198.40
182.17
174.53
174.72
180.13
183.61
180.06
169.18
154.95
142.22
133.45
128.31
124.74
119.98
109.65
92.12
69.82
48.21
32.96
26.37
27.16
31.79
35.91
34.89
26.53
11.91
-5.27
-20.53
-30.67
-34.76
-34.73
-35.34
-43.17
-63.49
-97.60
-141.20
-185.48
-220.34
-237.94
-235.15
-214.40
-182.09
-146.20
-113.63
-88.32
-70.29
-55.81
-38.65
-12.60
25.51
73.91
125.96
172.66
206.36
223.59
225.71
217.27
203.36
187.47
170.81
152.67
131.25
104.57
71.00
30.18
-16.17
-64.45
-110.09
-149.25
-180.30
-204.00
-222.13
-235.69
-243.68
-243.41
-232.04
-208.42
-174.05
-132.91
-90.14
-50.39
-16.78
9.41
28.40
41.09
48.53
51.54
50.84
47.29
42.19
37.18
33.96
33.79
37.00
42.83
49.60
55.33
58.40
58.21
55.33
51.17
47.37
45.04
44.23
44.03
42.95
39.64
33.55
25.08
15.59
6.86
0.63
-1.93
-0.44
4.70
12.57
22.15
32.65
43.61
54.89
66.27
77.22
86.79
93.88
97.56
97.57
94.47
89.58
84.70
81.64
81.92
86.53
95.65
108.54
123.46
137.79
148.41
152.46
148.09
135.09
114.98
90.54
64.88
40.58
19.13
1.03
-13.67
-24.81
-31.85
-33.99
-30.73
-22.31
-9.81
5.08
20.56
35.21
48.19
59.09
67.69
73.67
76.66
76.32
72.62
65.99
57.27
47.49
37.66
28.51
20.49
13.88
8.95
5.95
5.02
5.96
8.11
10.45
11.83
11.32
8.44
3.19
-4.11
-13.04
-23.19
-34.19
-45.54
-56.51
-66.15
-73.44
-77.55
-78.02
-74.92
-68.79
-60.44
-50.77
-40.57
-30.45
-20.87
-12.18
-4.71
1.31
5.78
8.85
10.94
12.61
14.29
16.12
17.87
19.04
19.14
17.94
15.52
12.26
8.54
4.63
0.54
-3.89
-8.90
-14.67
-21.23
-28.47
-36.17
-43.94
-51.22
-57.29
-61.31
-62.54
-60.51
-55.20
-47.02
-36.72
-25.22
-13.41
-2.04
8.30
17.16
24.19
29.21
32.26
33.64
33.75
33.06
31.91
30.52
29.04
27.53
26.02
24.41
22.54
20.24
17.57
14.85
12.64
11.55
11.87
13.50
15.90
18.28
19.89
20.15
18.73
15.56
10.90
5.42
0.08
-3.99
-5.83
-5.00
-1.79
2.92
7.99
12.42
15.63
17.60
18.64
19.21
19.71
20.36
21.23
22.28
23.37
24.31
24.87
24.82
23.94
22.05
19.06
14.97
9.86
3.89
-2.73
-9.75
-16.92
-24.02
-30.89
-37.35
-43.25
-48.42
-52.66
-55.87
-58.05
-59.26
-59.55
-58.85
-56.91
-53.34
-47.74
-39.75
-29.28
-16.56
-2.29
12.30
25.58
35.83
41.74
42.93
40.15
35.22
30.38
27.60
27.93
31.16
36.11
41.21
45.37
48.42
51.23
55.21
61.53
70.38
80.68
90.41
97.32
99.71
96.83
89.09
77.56
63.95
50.27
38.55
30.24
25.65
23.66
21.76
17.13
8.25
-3.60
-14.20
-18.23
-12.34
2.36
19.94
32.07
32.09
18.21
-5.85
-33.15
-57.27
-75.07
-87.12
-95.76
-102.48
-106.56
-105.76
-98.42
-85.27
-69.72
-55.96
-47.12
-43.51
-42.67
-40.54
-33.50
-20.07
-1.39
19.56
39.75
58.02
76.05
97.80
127.17
165.45
209.51
251.73
282.37
292.90
278.87
241.22
186.00
122.64
61.65
12.28
-19.89
-34.44
-36.57
-35.65
-42.46
-65.77
-109.51
-171.21
-242.35
-310.86
-365.23
-398.96
-413.19
-416.06
-418.67
-429.42
-449.65
-473.19
-489.86
-491.13
-474.61
-444.47
-407.73
-369.86
-332.39
-293.84
-252.85
-210.85
-172.09
-141.36
-121.24
-110.57
-105.08
-99.04
-87.60
-67.97
-39.81
-4.67
35.08
77.55
122.29
170.29
222.84
279.63
337.18
388.96
427.30
446.60
445.95
429.35
403.90
376.57
351.61
329.87
310.07
291.13
273.64
259.65
250.96
247.04
244.14
236.20
217.41
184.95
140.62
90.60
42.98
4.71
-20.73
-34.07
-38.93
-39.50
-38.35
-35.56
-29.39
-17.82
-0.18
22.11
45.82
67.01
82.43
90.58
92.10
89.40
85.60
83.19
83.14
84.65
85.43
82.74
74.42
59.48
38.31
12.37
-15.73
-42.42
-63.68
-76.20
-79.09
-75.07
-70.34
-72.17
-85.36
-109.41
-137.88
-161.10
-170.77
-164.05
-144.75
-120.93
-100.38
-86.63
-77.78
-68.76
-55.32
-37.24
-18.92
-7.08
-6.98
-18.96
-37.98
-55.76
-64.51
-60.30
-44.12
-20.73
4.15
26.47
44.99
60.60
74.69
87.90
99.55
108.70
115.40
121.17
128.36
138.67
151.64
164.17
171.30
167.95
150.79
119.78
78.53
33.69
-6.94
-36.78
-52.60
-55.47
-50.10
-42.82
-38.97
-41.01
-48.42
-58.98
-70.63
-82.35
-93.86
-104.74
-114.06
-121.28
-127.41
-135.14
-147.23
-163.76
-180.61
-190.24
-185.28
-162.67
-125.89
-83.74
-46.23
-20.14
-6.75
-2.73
-3.08
-4.12
-4.62
-5.06
-6.17
-7.84
-9.23
-9.46
-8.57
-7.75
-9.13
-14.75
-25.67
-41.23
-58.90
-74.91
-85.34
-87.46
-80.59
-66.24
-47.38
-27.25
-8.39
7.80
20.83
30.55
36.72
39.18
38.32
35.50
32.96
33.03
37.05
44.48
52.89
58.88
59.53
53.65
42.23
27.83
13.40
1.25
-7.52
-12.78
-14.81
-13.81
-9.81
-2.90
6.41
17.01
27.37
35.88
41.18
42.47
39.63
33.29
24.81
16.11
9.34
6.43
8.60
16.15
28.33
43.67
60.36
76.63
91.05
102.71
111.18
116.58
119.53
121.04
122.29
124.35
127.81
132.57
137.75
141.88
143.26
140.44
132.63
119.91
103.19
83.95
63.80
44.10
25.79
9.40
-4.80
-16.70
-26.24
-33.62
-39.27
-43.88
-48.15
-52.52
-56.91
-60.81
-63.57
-64.77
-64.50
-63.37
-62.20
-61.66
-62.03
-63.29
-65.07
-66.74
-67.71
-67.77
-67.12
-66.27
-65.69
-65.75
-66.82
-69.03
-72.21
-75.82
-79.12
-81.16
-80.92
-77.52
-70.52
-60.82
-49.98
-39.64
-30.96
-24.49
-20.14
-17.24
-14.77
-11.74
-9.25
-8.46
-9.64
-11.85
-13.83
-14.88
-15.06
-15.28
-17.02
-25.31
-43.62
-71.34
-103.42
-133.23
-155.69
-168.80
-173.66
-173.67
-178.21
-194.06
-221.53
-254.27
-284.19
-306.17
-319.27
-325.67
-328.61
-337.27
-357.17
-387.04
-420.19
-450.49
-476.13
-497.80
-515.07
-481.39
-369.99
-190.90
10.59
185.76
307.56
372.87
394.40
391.32
381.08
367.37
348.43
323.68
297.83
278.15
269.59
272.55
283.26
295.83
299.72
289.17
264.80
233.34
202.28
175.68
153.84
135.57
120.17
104.79
88.19
71.36
57.04
47.73
44.23
46.31
53.64
65.57
78.76
88.88
91.92
84.30
65.14
36.78
4.85
-23.00
-39.57
-41.11
-27.86
-3.56
26.14
55.45
79.33
94.15
97.80
89.71
70.98
44.46
14.39
-14.35
-37.35
-51.73
-57.15
-55.99
-52.56
-51.44
-55.83
-66.53
-81.84
-98.24
-111.10
-116.75
-114.06
-104.88
-92.81
-81.48
-73.33
-69.04
-67.41
-64.90
-57.86
-45.05
-28.41
-11.50
2.64
12.85
20.07
26.79
37.51
55.25
78.51
100.95
114.92
115.18
100.69
74.59
43.29
17.17
6.30
16.23
46.56
93.38
151.59
215.60
278.76
316.33
306.10
246.61
159.18
68.38
-11.82
-77.08
-126.77
-162.79
-182.64
-180.17
-151.19
-98.21
-30.91
37.88
93.87
126.28
129.92
106.16
63.27
12.32
-37.71
-82.72
-122.19
-156.70
-185.82
-207.57
-218.51
-214.32
-192.90
-156.76
-113.07
-70.75
-37.04
-15.50
-6.30
-7.08
-14.28
-24.59
-36.00
-47.86
-59.89
-71.52
-81.66
-89.19
-93.34
-93.98
-91.70
-87.73
-83.57
-80.32
-78.24
-76.69
-74.63
-71.12
-65.80
-58.99
-51.37
-43.56
-35.82
-27.93
-19.31
-9.51
1.43
12.71
22.80
29.79
31.93
28.27
19.11
6.23
-7.45
-18.58
-24.40
-23.77
-17.68
-8.75
-0.11
6.29
10.93
16.82
28.53
50.63
86.16
135.66
196.59
263.24
327.07
377.84
405.80
404.50
373.35
318.42
250.81
183.02
124.81
80.64
49.59
27.55
10.16
-5.28
-19.19
-30.55
-38.28
-42.08
-42.36
-39.55
-33.55
-23.49
-8.72
10.65
33.32
56.93
78.56
95.63
106.84
112.54
114.58
114.99
115.68
118.08
122.76
129.38
137.11
145.22
153.43
161.86
169.31
174.80
178.54
182.27
188.38
198.78
214.01
232.77
252.02
264.71
264.80
249.99
222.14
184.82
141.32
94.07
45.05
-3.70
-54.84
-110.16
-168.35
-225.28
-277.03
-321.55
-358.10
-386.35
-406.46
-425.64
-450.85
-484.90
-525.72
-569.92
-615.44
-662.22
-711.40
-724.43
-677.19
-572.80
-437.59
-297.11
-164.56
-45.49
56.46
138.83
202.21
244.42
265.81
269.29
258.24
233.83
196.26
148.77
99.47
58.95
30.67
12.83
0.90
-9.27
-20.61
-33.94
-47.90
-59.86
-67.07
-70.30
-69.98
-64.36
-50.46
-27.33
2.13
32.47
58.16
76.10
85.21
86.43
82.14
74.92
66.57
58.23
51.13
46.75
46.25
49.03
52.97
55.68
55.36
51.45
45.14
38.76
34.81
34.79
38.48
44.15
49.52
52.55
52.34
49.66
46.50
45.26
47.83
54.87
65.58
78.00
88.61
93.05
87.31
69.01
38.43
-1.27
-45.06
-89.02
-127.41
-155.65
-171.26
-173.26
-161.80
-137.90
-104.04
-64.96
-27.50
1.22
15.85
15.54
5.24
-5.57
-6.41
10.27
46.21
96.64
152.25
201.84
235.64
247.61
236.39
205.44
162.33
116.99
79.10
55.20
45.99
46.38
48.07
43.93
31.52
14.15
-1.46
-8.95
-5.74
6.02
21.40
35.84
47.26
56.10
63.72
70.16
73.13
68.59
52.26
21.56
-22.84
-76.86
-133.88
-186.43
-228.15
-255.18
-266.83
-265.09
-253.48
-235.56
-214.18
-191.27
-168.20
-146.18
-126.36
-109.47
-95.14
-81.53
-65.51
-43.43
-12.19
29.79
81.60
139.46
196.70
244.64
274.20
278.46
255.26
209.12
150.87
94.51
52.34
30.71
28.22
37.47
49.42
57.17
57.75
51.22
38.54
20.39
-2.52
-28.30
-53.21
-72.56
-82.93
-83.89
-78.10
-69.70
-61.83
-54.98
-47.07
-34.70
-15.26
11.25
41.27
67.78
81.71
74.54
41.50
-15.74
-88.35
-162.19
-221.86
-254.87
-254.95
-223.52
-168.64
-102.76
-39.51
9.58
37.45
42.88
30.14
7.22
-16.86
-34.24
-40.03
-32.75
-13.75
13.74
45.64
78.03
107.78
133.10
153.75
170.55
184.76
197.35
208.62
218.24
225.43
229.07
227.84
220.38
205.52
182.71
152.42
116.02
75.36
32.05
-12.84
-58.55
-103.81
-146.13
-181.73
-206.28
-216.36
-210.74
-190.83
-160.39
-124.44
-88.14
-55.76
-29.94
-11.56
0.18
7.13
11.69
16.04
22.04
31.06
44.19
62.30
85.80
114.24
146.01
178.48
208.46
233.08
250.61
260.76
264.39
263.13
258.62
252.06
243.97
234.07
221.68
206.10
187.05
164.78
140.08
113.98
87.42
61.09
35.38
10.63
-12.73
-34.11
-52.91
-68.78
-81.86
-92.72
-102.20
-111.03
-119.55
-127.67
-134.94
-140.69
-144.31
-145.51
-144.32
-141.18
-136.75
-131.75
-126.79
-122.35
-118.73
-116.10
-114.54
-113.92
-113.82
-113.60
-112.70
-110.71
-107.52
-103.42
-99.19
-95.80
-93.99
-94.01
-95.54
-98.17
-101.32
-104.31
-106.30
-106.47
-104.25
-99.47
-92.59
-84.61
-77.27
-71.92
-68.89
-67.38
-66.17
-64.30
-61.55
-58.38
-55.56
-55.20
-58.48
-64.79
-71.96
-77.60
-80.52
-81.09
-80.90
-82.13
-89.50
-105.70
-129.27
-154.71
-175.39
-186.71
-187.50
-179.79
-167.75
-160.51
-164.55
-180.13
-201.46
-221.15
-234.67
-241.68
-244.98
-248.40
-261.17
-289.04
-330.93
-379.28
-424.69
-459.41
-477.62
-474.60
-410.79
-270.18
-73.03
129.96
290.24
386.50
425.06
426.77
413.64
400.35
385.61
362.97
329.75
291.55
258.77
240.50
239.97
253.70
273.67
286.30
282.22
260.68
229.83
199.55
176.66
162.80
155.61
151.25
143.37
128.18
106.34
82.27
60.76
44.58
33.85
27.15
23.83
23.11
25.68
33.36
47.58
67.48
89.85
110.77
124.44
129.06
125.71
117.16
105.63
91.62
74.49
54.93
36.49
25.26
27.33
44.35
71.12
96.77
109.62
102.87
77.85
42.69
7.62
-19.74
-37.51
-47.66
-51.86
-48.20
-31.57
2.23
51.30
105.40
148.97
167.18
152.59
108.01
44.24
-25.91
-93.62
-156.54
-216.74
-275.92
-331.67
-376.62
-401.32
-398.78
-368.00
-314.28
-246.71
-174.53
-104.57
-40.84
14.12
57.51
85.97
96.84
90.12
69.62
42.37
16.37
-2.30
-11.47
-13.14
-12.30
-14.37
-22.85
-37.91
-56.25
-72.42
-80.65
-76.74
-59.64
-32.10
-0.44
26.59
39.67
31.24
-2.07
-57.72
-127.01
-196.70
-252.53
-283.31
-284.27
-258.35
-214.60
-164.64
-118.53
-81.83
-55.01
-35.14
-18.36
-2.29
13.14
26.46
35.86
40.17
38.93
32.08
19.93
3.51
-14.82
-31.25
-41.16
-40.78
-28.75
-6.77
21.12
50.23
77.32
101.72
125.30
150.98
180.70
213.78
246.34
272.13
284.37
278.01
251.50
207.45
152.04
93.21
38.88
-4.50
-32.59
-43.16
-35.74
-11.58
26.42
73.59
123.86
170.58
207.78
231.45
240.37
236.11
222.13
202.49
180.51
158.07
135.63
112.88
89.50
65.70
42.28
20.31
0.73
-15.92
-29.64
-40.85
-50.27
-58.74
-67.01
-75.54
-84.16
-91.97
-97.43
-98.76
-94.63
-84.77
-70.32
-53.64
-37.60
-24.58
-15.69
-10.48
-7.37
-4.60
-1.16
2.67
5.60
6.15
3.73
-0.81
-5.23
-6.62
-2.23
10.04
31.20
60.85
96.50
133.09
163.36
179.44
175.58
150.63
109.01
59.27
10.84
-29.56
-59.88
-82.31
-100.90
-118.77
-136.47
-152.11
-162.74
-166.00
-160.96
-148.12
-128.78
-104.49
-77.04
-48.63
-21.99
0.02
15.13
22.40
22.67
18.32
12.74
9.32
10.75
18.45
32.26
50.55
70.48
88.80
102.81
111.17
113.84
111.77
106.34
99.02
91.52
85.79
83.97
88.02
99.02
116.04
136.36
156.51
173.61
186.50
195.19
200.44
203.30
205.27
207.50
210.97
216.62
224.61
234.32
243.41
249.11
249.77
246.31
240.24
232.07
220.51
202.29
174.48
135.65
87.40
34.31
-17.87
-66.59
-112.70
-158.06
-204.56
-244.94
-269.16
-272.19
-262.41
-247.52
-232.44
-219.65
-206.84
-194.83
-187.46
-191.80
-214.12
-254.98
-307.28
-358.38
-393.89
-401.87
-376.93
-320.50
-240.51
-149.12
-59.62
14.55
62.74
80.34
69.97
39.64
0.07
-39.41
-73.21
-100.00
-124.43
-153.08
-190.74
-238.17
-292.71
-349.24
-401.18
-441.87
-448.54
-407.83
-324.38
-220.05
-120.05
-39.86
17.34
56.13
82.29
99.50
106.70
102.70
90.30
75.82
66.31
66.01
76.13
94.86
119.04
142.90
160.90
168.86
164.85
149.65
122.17
86.73
50.07
18.44
-6.71
-27.64
-47.37
-66.25
-80.63
-84.51
-71.53
-40.58
2.76
48.06
85.58
110.83
125.61
135.45
145.59
159.89
177.42
193.62
203.21
203.66
196.72
187.59
182.56
186.12
201.47
226.90
256.31
281.35
294.58
291.96
273.83
244.14
196.99
134.20
63.55
-4.10
-59.61
-97.99
-118.11
-121.52
-112.14
-94.84
-73.67
-52.71
-35.52
-24.33
-19.62
-20.47
-25.40
-33.29
-44.85
-58.37
-72.02
-84.18
-93.27
-98.02
-97.96
-93.99
-88.29
-83.54
-80.61
-79.45
-79.30
-79.19
-78.23
-75.58
-70.18
-61.03
-47.52
-29.38
-7.66
15.72
38.93
61.07
82.05
102.05
120.69
136.97
150.04
159.46
165.21
167.21
164.70
156.17
140.07
115.92
85.23
51.28
17.86
-12.29
-38.44
-61.84
-84.97
-110.12
-138.06
-166.91
-191.67
-205.29
-201.00
-175.27
-130.14
-73.13
-14.62
36.12
74.24
100.11
117.75
131.75
144.49
155.19
160.52
155.90
137.03
100.98
47.43
-20.10
-93.58
-161.55
-211.91
-235.85
-231.04
-202.40
-160.27
-117.01
-83.97
-69.25
-76.87
-106.28
-152.02
-203.93
-248.70
-272.90
-267.33
-230.59
-170.17
-100.17
-36.48
8.25
28.04
24.01
2.26
-29.01
-61.93
-90.44
-110.78
-121.64
-124.08
-121.13
-116.89
-115.03
-117.29
-122.36
-126.37
-124.52
-113.23
-91.70
-62.00
-27.91
6.70
39.06
67.51
90.82
107.37
115.05
111.95
97.36
72.72
41.84
10.55
-14.26
-26.07
-20.47
3.27
41.50
87.10
131.64
168.24
193.20
206.19
208.90
203.39
191.25
173.85
153.04
131.60
112.73
98.92
91.10
88.55
89.65
92.81
97.14
102.49
109.06
117.03
126.17
135.89
145.30
153.43
159.57
163.71
166.72
170.38
176.70
186.98
201.04
217.08
232.18
243.43
248.93
248.13
241.50
229.76
213.20
191.57
164.52
132.19
95.48
55.70
13.98
-29.01
-72.82
-116.51
-157.94
-193.95
-221.23
-237.56
-242.79
-238.78
-228.61
-215.35
-201.19
-187.22
-173.93
-161.84
-151.87
-145.09
-142.02
-142.11
-143.65
-144.52
-142.94
-138.17
-130.83
-122.30
-114.11
-107.30
-102.25
-99.02
-97.87
-98.99
-101.76
-104.05
-102.27
-92.53
-72.48
-42.81
-7.48
27.16
55.26
73.62
82.58
85.00
84.55
84.01
84.61
86.26
86.99
85.06
79.52
70.25
57.49
41.37
21.99
-0.42
-25.52
-55.35
-91.24
-132.73
-177.11
-220.21
-257.69
-286.01
-302.95
-308.05
-306.85
-305.51
-308.50
-316.97
-329.40
-343.31
-356.44
-367.35
-375.56
-386.58
-404.26
-427.92
-451.93
-469.09
-474.92
-469.41
-455.78
-404.97
-300.96
-145.44
39.32
222.01
375.76
483.86
541.20
554.12
538.38
508.06
474.87
444.78
418.32
392.56
364.17
333.53
302.77
275.71
251.60
228.80
205.95
183.58
163.69
148.21
138.23
133.61
133.03
131.41
124.01
108.39
85.51
59.88
36.62
19.82
11.24
10.31
13.31
15.96
15.13
9.96
1.74
-7.12
-14.11
-17.73
-18.32
-18.74
-23.16
-35.34
-56.76
-85.61
-117.29
-145.80
-165.70
-173.68
-169.21
-154.14
-131.68
-105.50
-79.12
-55.76
-38.14
-28.00
-25.50
-28.78
-34.06
-36.42
-31.29
-16.02
8.83
39.19
68.58
90.14
99.27
95.85
85.15
76.47
79.87
101.93
142.48
193.82
243.24
277.46
286.79
267.97
224.72
166.42
105.87
56.87
31.68
38.55
79.10
146.43
225.59
297.08
342.85
352.17
324.90
270.15
202.37
135.63
79.04
34.91
0.11
-31.08
-64.03
-101.78
-145.03
-190.81
-232.45
-261.10
-268.40
-249.30
-204.44
-141.07
-71.81
-13.05
23.44
34.90
27.38
11.40
-3.35
-11.96
-15.41
-18.52
-29.71
-52.78
-85.10
-120.93
-156.63
-193.09
-234.57
-285.30
-345.68
-415.04
-485.56
-544.04
-578.14
-582.50
-560.31
-520.63
-474.17
-401.00
-299.13
-183.82
-76.60
8.95
69.81
108.90
131.19
141.77
146.11
144.93
138.82
130.73
124.71
123.40
128.24
140.12
158.93
185.47
217.12
246.79
269.70
281.85
278.82
258.12
221.78
176.07
132.08
98.56
80.45
72.48
67.10
55.53
33.47
11.00
-6.82
-15.73
-13.64
-3.36
14.35
38.73
66.76
93.02
110.48
111.70
94.04
59.92
16.42
-26.27
-58.66
-75.25
-75.23
-61.86
-42.03
-22.76
-10.53
-10.41
-24.35
-50.45
-83.43
-115.90
-140.97
-155.13
-157.98
-151.82
-140.02
-124.93
-107.49
-88.12
-67.81
-48.81
-34.38
-26.80
-26.29
-30.70
-36.25
-39.09
-36.49
-27.20
-11.09
11.18
38.51
69.44
102.26
135.51
168.62
202.05
237.03
274.93
316.88
363.62
415.30
470.69
526.44
576.67
613.65
629.15
617.41
577.43
513.33
432.29
341.80
248.72
159.94
83.60
27.99
-0.99
-3.38
12.99
34.22
45.17
36.95
11.03
-21.33
-46.14
-52.94
-38.97
-8.74
29.11
64.14
89.38
102.59
106.70
103.25
92.56
74.07
48.37
17.52
-18.87
-59.40
-100.16
-132.40
-153.77
-166.66
-176.91
-189.65
-208.13
-238.85
-283.60
-338.06
-388.14
-428.04
-458.44
-484.99
-513.00
-546.80
-596.98
-669.42
-761.44
-854.82
-936.99
-998.91
-1036.26
-1046.74
-982.76
-825.90
-595.46
-387.07
-224.68
-104.05
-0.71
93.99
181.32
257.00
306.41
318.50
291.64
240.95
178.31
114.61
58.49
18.45
-0.31
-3.48
0.91
12.90
35.53
62.69
86.76
102.57
110.50
113.01
107.95
95.23
79.25
68.76
68.75
80.48
101.08
126.59
153.31
177.20
196.97
214.48
234.68
260.83
294.45
333.83
374.48
410.63
435.26
443.09
432.58
406.82
371.55
334.18
300.12
271.22
247.61
227.64
209.61
192.87
178.04
166.18
159.30
157.80
160.14
165.83
174.21
184.48
195.67
206.59
215.27
221.67
226.06
215.25
182.28
128.05
60.85
-8.82
-66.59
-113.61
-151.12
-178.61
-194.87
-197.31
-185.41
-163.24
-139.04
-122.79
-123.82
-145.38
-185.13
-236.21
-287.60
-328.87
-353.43
-359.76
-350.42
-330.99
-306.21
-280.24
-256.22
-234.78
-215.02
-195.33
-174.23
-151.08
-127.02
-103.21
-80.78
-60.16
-40.12
-18.98
4.28
29.43
55.38
80.80
105.42
129.47
152.91
175.09
194.65
210.30
221.63
229.58
235.80
241.80
247.85
252.54
253.46
248.30
235.96
216.94
193.36
168.42
145.40
126.56
112.32
101.08
89.92
75.88
57.01
32.98
4.57
-27.03
-60.59
-94.89
-128.15
-157.38
-178.69
-188.48
-185.38
-171.40
-151.35
-130.64
-112.86
-98.79
-87.43
-78.27
-73.10
-75.92
-90.70
-118.40
-154.82
-191.46
-218.52
-228.98
-221.25
-199.24
-169.88
-139.86
-113.35
-91.65
-74.51
-61.49
-52.65
-48.01
-45.92
-42.27
-31.19
-7.58
29.62
75.82
121.39
154.64
165.91
150.70
110.78
53.17
-12.11
-74.38
-124.00
-153.74
-160.07
-144.19
-112.32
-74.35
-41.06
-20.66
-16.12
-24.34
-37.95
-48.44
-49.33
-38.11
-16.41
11.43
40.25
65.59
84.53
95.58
98.56
94.49
85.24
73.36
61.69
52.79
48.42
49.15
54.23
61.92
70.12
77.06
81.80
84.40
85.51
85.91
85.84
84.87
82.15
76.98
69.29
59.95
50.60
43.20
39.58
40.88
47.33
58.16
71.75
86.01
98.91
108.92
115.20
117.69
116.76
113.06
107.27
100.04
92.00
83.73
75.74
68.34
61.59
55.23
48.74
41.43
32.57
21.53
8.07
-7.53
-24.35
-40.95
-55.72
-67.30
-74.96
-78.77
-79.46
-78.00
-75.29
-71.86
-67.86
-63.28
-58.19
-53.00
-48.21
-44.13
-40.60
-37.01
-32.62
-26.96
-20.06
-12.52
-5.30
0.88
5.89
10.22
14.55
19.21
24.02
28.35
31.51
32.86
32.41
30.83
29.16
28.26
28.61
30.26
33.17
37.24
41.26
44.01
44.49
42.25
37.35
30.18
21.41
11.83
2.11
-9.62
-25.09
-44.79
-67.44
-90.55
-111.56
-128.45
-140.00
-145.99
-150.58
-157.77
-169.68
-185.93
-204.56
-223.58
-241.57
-257.76
-272.11
-289.70
-314.46
-347.28
-385.26
-423.53
-457.27
-482.21
-494.29
-464.93
-377.51
-233.86
-57.30
119.62
269.62
376.20
432.81
441.73
417.60
370.58
312.25
255.71
212.89
190.46
187.89
198.97
215.69
231.18
237.17
230.14
211.67
186.33
158.88
132.84
110.54
93.84
84.39
79.79
76.56
71.29
61.64
47.43
31.30
17.52
9.76
8.91
10.29
7.38
-4.50
-22.84
-40.87
-50.03
-45.35
-28.46
-5.70
14.81
25.02
25.70
19.99
10.70
-0.81
-15.36
-35.58
-60.79
-90.64
-123.86
-158.25
-192.30
-224.86
-254.12
-276.79
-288.03
-282.40
-256.61
-210.83
-148.83
-77.35
-3.02
70.22
141.39
210.80
277.20
335.51
377.74
396.25
386.85
351.34
297.05
233.90
170.53
112.04
59.19
10.52
-35.37
-78.89
-119.86
-158.90
-198.31
-241.14
-288.70
-338.42
-383.12
-413.17
-420.54
-402.54
-363.33
-312.04
-258.81
-210.63
-169.62
-134.09
-101.57
-71.50
-45.89
-27.72
-18.24
-15.46
-14.35
-9.12
4.19
26.35
55.15
87.27
120.09
152.47
183.64
211.51
231.91
240.10
233.71
215.04
190.71
168.19
151.51
138.45
121.64
92.97
48.62
-8.04
-67.66
-118.91
-153.06
-166.60
-161.02
-140.67
-110.56
-75.21
-38.45
-3.79
26.14
49.91
67.59
80.51
90.33
98.28
104.46
107.96
107.31
101.37
89.98
74.38
57.07
41.20
29.69
24.43
25.82
32.75
42.92
53.45
61.44
64.53
61.17
50.91
34.34
13.13
-10.32
-33.26
-53.22
-68.54
-78.58
-83.67
-84.65
-82.33
-77.05
-68.60
-56.56
-40.70
-21.51
-0.29
21.14
40.93
57.81
71.38
82.07
90.68
97.87
103.79
108.08
110.14
109.53
106.24
100.55
92.79
82.93
70.56
55.01
35.98
14.03
-9.03
-30.25
-46.17
-53.70
-51.05
-38.30
-17.42
8.25
34.80
58.64
77.11
88.74
93.15
90.82
82.93
71.14
57.51
44.26
33.42
26.48
24.11
26.04
31.22
38.20
45.49
52.04
57.31
61.24
64.04
65.86
66.64
66.19
64.19
60.30
54.33
46.29
36.41
25.06
12.70
-0.31
-13.74
-27.72
-42.59
-58.60
-75.39
-91.91
-106.61
-118.07
-125.55
-128.95
-128.86
-126.17
-121.68
-115.92
-109.37
-102.77
-97.09
-93.31
-91.20
-90.01
-88.88
-87.08
-84.17
-80.12
-75.36
-70.89
-68.00
-66.34
-65.33
-64.43
-63.03
-60.28
-55.08
-46.45
-33.84
-17.09
6.21
37.82
78.03
125.14
176.48
229.11
280.10
326.50
365.22
396.29
419.46
433.59
437.52
431.79
419.65
406.30
396.97
373.99
328.02
259.99
180.27
102.00
35.10
-15.18
-47.52
-63.97
-66.79
-61.59
-54.27
-50.26
-53.34
-64.37
-81.42
-101.52
-123.05
-146.57
-171.81
-199.62
-231.38
-266.88
-302.46
-331.20
-345.34
-339.71
-314.53
-274.80
-229.97
-191.12
-166.97
-160.59
-168.92
-184.58
-198.95
-204.53
-195.51
-168.75
-124.74
-68.15
-7.87
44.21
76.49
81.33
57.98
13.07
-42.25
-96.64
-142.21
-175.98
-198.67
-212.34
-218.53
-217.83
-210.33
-196.31
-176.43
-151.23
-121.15
-87.16
-51.31
-17.31
9.74
24.69
24.24
8.42
-18.95
-51.80
-84.23
-111.30
-129.62
-137.61
-134.79
-121.32
-97.73
-64.62
-23.82
20.54
64.36
105.12
142.13
176.56
210.65
246.18
284.21
323.38
358.79
386.07
403.20
409.86
406.71
394.15
371.65
340.05
300.98
255.74
208.76
167.13
136.86
120.82
118.28
117.38
108.81
101.09
96.49
88.45
72.03
43.64
3.53
-42.39
-83.29
-106.14
-102.92
-77.26
-41.37
-11.22
-1.70
-20.97
-67.79
-132.94
-202.35
-262.84
-306.85
-330.79
-333.92
-318.18
-287.76
-248.60
-207.84
-171.87
-145.25
-130.25
-124.90
-123.83
-121.48
-114.68
-103.84
-92.15
-82.85
-77.34
-74.61
-71.22
-62.99
-47.26
-23.90
5.04
36.25
66.36
92.54
112.71
126.34
134.61
140.12
146.23
156.01
170.79
189.47
208.48
222.22
224.62
211.04
179.94
133.83
79.55
27.04
-13.12
-32.89
-29.50
-6.10
29.90
69.93
107.47
139.79
167.64
193.18
217.75
240.08
256.20
260.60
248.15
215.52
161.85
89.06
1.83
-92.26
-183.15
-259.52
-312.04
-336.73
-337.14
-323.99
-311.36
-310.71
-325.77
-351.29
-376.04
-388.77
-383.34
-360.27
-324.41
-280.76
-231.16
-174.26
-108.33
-34.48
42.01
113.18
171.93
214.83
242.67
258.63
265.47
263.62
251.37
226.70
189.39
142.25
90.59
40.53
-2.77
-36.30
-59.37
-73.04
-79.41
-80.97
-80.00
-78.03
-75.64
-72.59
-68.27
-62.32
-54.78
-45.92
-35.97
-24.91
-13.12
-1.92
5.98
7.09
-1.48
-20.48
-47.68
-78.34
-106.63
-127.39
-137.21
-134.67
-119.67
-92.94
-55.91
-11.01
38.02
86.55
130.00
165.19
191.16
209.11
221.51
230.90
238.85
245.56
250.18
251.59
249.16
243.33
235.52
227.69
221.61
218.17
216.92
215.99
212.57
203.81
187.95
165.16
137.83
109.74
84.72
64.91
50.01
37.54
24.33
8.30
-10.51
-30.12
-47.83
-61.75
-71.59
-78.53
-84.17
-89.67
-95.26
-100.67
-105.60
-109.94
-113.46
-115.34
-114.07
-108.05
-96.52
-80.31
-61.77
-43.90
-29.41
-19.64
-14.31
-12.03
-11.08
-10.16
-8.54
-6.04
-2.84
0.30
2.52
3.04
1.54
-1.77
-6.25
-10.98
-14.91
-17.00
-16.90
-14.50
-9.91
-3.43
4.26
12.18
19.37
25.29
29.76
31.46
29.33
23.32
14.76
5.72
-2.11
-8.03
-12.59
-17.51
-28.03
-48.49
-79.71
-117.84
-156.21
-188.41
-210.40
-221.38
-223.68
-226.22
-237.30
-260.29
-291.94
-325.31
-354.13
-375.08
-388.01
-394.82
-404.00
-422.63
-452.72
-490.46
-529.81
-565.77
-594.17
-609.88
-569.94
-448.46
-252.42
-24.75
181.61
332.05
418.35
451.95
453.01
440.79
421.50
394.43
358.33
316.93
278.26
250.53
238.43
241.18
254.78
268.61
273.51
266.22
250.17
231.74
215.82
203.67
193.71
183.79
169.60
148.93
122.86
95.35
70.68
51.04
37.48
29.05
24.33
20.81
16.77
11.77
6.58
2.13
-1.38
-4.55
-8.37
-13.63
-21.30
-31.86
-44.83
-58.40
-69.78
-76.00
-74.92
-66.27
-51.80
-34.84
-19.08
-7.19
0.13
3.93
6.06
7.89
9.42
9.59
7.07
1.23
-7.37
-17.21
-26.64
-34.70
-41.57
-48.52
-57.18
-68.74
-83.31
-99.78
-116.12
-129.97
-139.45
-143.77
-143.43
-140.03
-135.75
-132.69
-132.33
-134.95
-139.29
-142.47
-140.71
-130.54
-110.41
-81.60
-48.48
-17.20
6.11
17.38
15.94
4.82
-10.10
-22.00
-25.09
-16.01
5.77
38.67
80.66
130.56
188.28
253.53
323.71
392.67
451.26
490.24
503.79
491.76
459.27
413.88
361.80
305.40
243.62
174.98
101.17
28.83
-32.02
-72.21
-88.46
-85.69
-75.64
-72.03
-84.86
-116.58
-161.83
-210.80
-253.85
-285.12
-303.45
-310.94
-310.28
-302.88
-288.50
-266.36
-236.66
-201.38
-164.37
-129.93
-101.34
-79.84
-64.52
-53.22
-43.75
-35.13
-27.82
-23.36
-23.16
-27.50
-34.93
-42.58
-47.25
-46.57
-40.04
-28.98
-15.82
-2.92
8.40
18.11
27.03
36.04
45.59
55.56
65.55
75.21
84.33
92.55
99.09
102.75
102.17
96.44
85.57
70.65
53.55
36.28
20.43
6.72
-4.95
-15.17
-24.65
-33.84
-42.79
-51.21
-58.54
-64.07
-67.19
-67.63
-65.68
-62.25
-58.64
-56.07
-55.22
-56.11
-58.29
-61.12
-63.97
-66.11
-66.77
-65.38
-61.94
-57.21
-52.41
-48.54
-45.93
-44.40
-43.74
-44.25
-46.56
-50.81
-55.72
-58.38
-55.20
-43.55
-23.15
3.57
32.55
59.75
82.70
101.12
116.60
131.92
149.82
172.13
198.75
227.57
254.84
276.57
289.93
294.33
291.82
286.59
284.15
290.07
308.21
338.77
377.09
414.26
439.60
444.48
425.43
384.85
329.04
264.65
195.78
123.65
48.47
-27.87
-100.55
-162.99
-209.49
-237.40
-247.64
-243.18
-226.69
-199.05
-159.65
-107.90
-45.17
24.24
93.40
154.13
199.14
223.54
225.64
206.84
170.77
121.80
63.97
0.80
-64.07
-125.92
-178.98
-218.02
-240.95
-250.61
-254.61
-262.32
-280.51
-310.02
-345.10
-376.03
-393.54
-392.75
-374.63
-344.88
-310.77
-278.28
-250.18
-226.12
-203.58
-179.25
-150.39
-115.52
-74.57
-28.44
21.28
72.05
119.51
156.89
175.64
168.47
133.32
76.56
12.84
-39.33
-64.67
-57.35
-23.44
22.18
62.85
87.08
92.02
82.28
65.34
46.97
29.09
10.69
-9.72
-32.01
-53.85
-71.94
-83.49
-87.18
-83.39
-73.72
-60.39
-45.79
-31.86
-19.41
-7.74
5.18
21.63
43.04
69.09
98.38
129.64
162.47
196.90
232.22
266.09
294.88
315.34
326.09
328.27
324.08
314.95
300.59
279.91
253.25
224.03
198.50
183.28
181.95
192.73
208.79
220.63
219.39
199.52
159.73
102.73
34.38
-37.49
-104.40
-158.60
-194.25
-209.08
-205.15
-188.84
-169.79
-159.01
-166.15
-196.69
-249.90
-318.17
-388.90
-447.58
-482.45
-488.06
-466.65
-426.57
-378.29
-330.14
-285.70
-244.05
-201.93
-156.57
-107.50
-56.59
-7.06
38.09
76.85
108.36
132.64
150.55
163.67
174.52
186.70
204.08
229.57
263.67
303.58
343.37
375.66
394.06
394.96
378.38
347.01
304.63
254.89
201.45
148.79
102.98
70.90
57.89
65.20
88.12
116.83
139.32
145.20
128.60
89.23
31.65
-36.76
-107.79
-173.91
-229.41
-271.42
-300.39
-319.97
-335.25
-349.97
-364.22
-373.60
-371.30
-351.92
-315.03
-266.68
-217.31
-177.11
-151.42
-138.40
-130.42
-118.19
-95.39
-61.31
-20.67
19.33
52.42
75.47
88.85
94.89
95.69
91.78
82.52
67.53
48.18
28.00
11.51
2.13
0.83
5.66
12.77
18.27
19.76
16.85
10.79
3.55
-2.99
-7.18
-7.58
-2.91
7.57
23.49
43.09
63.40
80.94
92.63
96.46
91.96
80.20
63.78
46.26
31.57
22.84
21.58
27.24
37.67
49.98
61.69
71.24
77.96
81.84
83.23
82.81
81.54
80.31
79.49
78.58
76.52
72.33
65.87
58.04
50.40
44.45
41.21
41.15
44.51
51.48
61.98
75.16
89.18
101.39
109.11
110.55
105.42
94.80
80.62
64.93
49.34
34.92
22.36
12.16
4.64
-0.18
-2.81
-4.26
-5.86
-8.73
-13.26
-19.05
-25.06
-30.21
-33.80
-35.82
-36.66
-36.68
-35.93
-34.16
-31.05
-26.54
-21.04
-15.36
-10.46
-7.04
-5.34
-5.12
-6.01
-7.59
-9.50
-11.27
-12.32
-12.04
-10.14
-7.01
-3.79
-2.34
-4.32
-10.38
-19.92
-31.43
-43.12
-53.56
-61.98
-68.23
-73.24
-78.03
-83.24
-88.98
-94.83
-100.12
-103.95
-105.49
-104.35
-102.36
-101.98
-105.20
-112.64
-123.40
-135.59
-146.95
-155.58
-160.60
-164.42
-169.88
-178.49
-189.49
-200.53
-209.33
-214.71
-216.88
-217.14
-219.14
-224.66
-232.54
-239.33
-241.85
-239.26
-232.47
-222.00
-188.78
-120.88
-20.68
91.98
190.55
255.53
281.00
273.91
249.89
224.04
203.47
189.79
181.34
176.11
173.05
171.72
172.39
173.84
174.21
169.74
158.05
139.59
118.07
98.43
84.76
78.68
79.11
83.23
86.50
85.46
78.96
68.45
56.83
46.96
40.60
38.05
38.58
40.39
42.15
43.69
46.12
50.76
57.66
64.62
67.38
61.33
43.44
14.48
-20.56
-53.95
-78.18
-88.46
-84.24
-68.81
-47.64
-26.51
-10.11
-1.44
-1.70
-10.48
-25.65
-43.79
-60.91
-73.62
-80.11
-80.64
-77.28
-73.12
-71.40
-74.22
-82.03
-93.72
-107.15
-119.91
-130.10
-136.72
-140.09
-142.02
-144.17
-147.12
-150.14
-151.36
-148.63
-140.53
-126.69
-108.71
-90.30
-74.28
-61.15
-49.24
-35.54
-17.18
6.95
36.29
67.68
94.80
112.51
118.44
112.87
99.00
82.39
69.74
68.20
82.23
110.29
148.28
191.05
232.66
267.65
291.53
294.11
270.07
231.56
183.89
127.02
65.28
6.19
-40.89
-66.90
-65.74
-35.84
17.02
78.25
131.32
162.71
165.16
139.51
93.29
38.39
-12.14
-48.43
-67.02
-67.32
-49.07
-11.57
45.55
118.83
200.74
280.48
345.64
384.85
393.11
373.96
337.88
296.53
254.90
213.17
169.07
120.65
67.10
9.98
-47.19
-99.64
-145.45
-190.62
-241.20
-299.56
-363.18
-427.14
-486.32
-536.63
-574.07
-599.09
-621.66
-651.11
-692.05
-743.13
-800.43
-860.90
-923.50
-986.86
-1003.65
-945.56
-813.96
-638.44
-452.97
-279.20
-127.16
-12.17
75.86
143.97
190.38
215.27
223.54
224.33
225.11
230.70
243.69
267.48
301.57
338.68
372.32
399.64
422.09
442.14
460.37
474.53
482.14
479.16
461.23
429.32
389.74
351.29
320.45
299.05
285.07
276.37
270.47
264.68
257.19
246.09
229.02
203.37
167.46
121.88
70.46
18.11
-30.67
-72.52
-106.15
-132.60
-154.92
-176.81
-200.89
-227.03
-252.87
-274.80
-289.62
-296.01
-294.99
-289.20
-281.50
-273.57
-264.95
-254.24
-240.17
-222.36
-201.30
-177.55
-151.14
-121.59
-88.30
-50.24
-8.43
33.89
72.27
102.80
123.36
133.79
135.65
131.93
129.29
133.72
149.05
176.37
214.24
259.09
305.53
347.37
379.62
403.79
421.86
434.94
443.29
447.66
450.68
456.15
468.10
489.94
527.76
580.45
637.96
684.68
706.42
696.22
655.25
590.40
476.84
313.82
123.56
-57.76
-198.50
-283.04
-312.22
-298.13
-263.97
-232.16
-214.37
-216.15
-237.80
-275.58
-322.66
-368.28
-402.86
-421.45
-424.10
-411.73
-389.89
-368.08
-355.02
-353.31
-357.62
-358.18
-346.16
-317.59
-272.98
-219.59
-170.08
-136.77
-125.87
-135.89
-160.82
-194.15
-230.68
-265.77
-286.69
-284.12
-255.94
-207.61
-148.49
-88.05
-33.74
9.29
38.71
52.45
50.91
34.51
6.05
-28.64
-62.13
-87.52
-100.41
-99.77
-84.18
-54.70
-19.47
11.75
32.45
41.85
43.17
39.86
33.70
24.79
11.94
-5.51
-25.27
-43.60
-57.54
-65.64
-69.70
-72.38
-75.49
-80.12
-86.40
-92.46
-96.01
-95.69
-91.78
-86.03
-80.28
-75.21
-70.04
-66.02
-61.66
-55.07
-45.13
-32.08
-17.41
-2.74
10.97
23.69
36.21
50.98
70.20
95.23
126.15
161.42
197.98
231.49
257.27
271.85
276.02
273.57
269.98
270.31
277.04
289.27
303.84
317.08
326.58
333.43
338.94
343.65
347.28
349.62
351.39
353.84
357.13
359.39
358.58
351.21
334.19
306.52
269.70
226.80
181.15
135.22
78.87
10.65
-63.21
-131.54
-185.21
-222.36
-247.48
-265.99
-282.42
-295.34
-297.60
-283.08
-250.14
-203.22
-150.33
-102.24
-68.25
-53.73
-59.15
-80.16
-111.47
-148.41
-187.46
-225.79
-261.35
-293.39
-323.57
-355.42
-391.63
-432.49
-474.01
-508.26
-526.19
-521.40
-492.84
-445.07
-385.58
-320.88
-254.56
-187.29
-118.82
-50.25
15.00
72.22
117.47
149.36
169.70
182.48
192.36
203.34
218.07
237.57
261.57
289.04
318.68
349.22
379.26
406.88
429.21
442.64
443.93
431.74
407.77
376.45
343.37
312.83
286.00
260.81
233.27
199.39
156.69
105.14
47.20
-12.34
-66.67
-107.90
-128.76
-125.18
-98.48
-56.20
-10.48
25.33
40.73
30.95
-2.68
-54.50
-117.92
-187.90
-261.59
-336.99
-410.59
-476.10
-525.19
-550.27
-547.35
-518.19
-469.33
-409.30
-345.34
-281.41
-218.42
-156.24
-95.83
-39.99
7.58
44.71
72.60
95.96
120.84
151.16
185.83
218.08
237.90
236.48
210.49
163.71
105.37
45.95
-7.14
-51.69
-89.89
-125.15
-158.84
-188.55
-208.95
-214.44
-201.67
-171.19
-127.30
-76.67
-26.14
18.99
55.89
84.06
104.54
118.93
128.56
134.36
137.28
138.69
140.46
144.58
152.58
164.80
180.24
197.01
213.10
227.11
238.30
246.21
249.93
247.84
238.14
220.29
196.31
170.90
149.84
137.36
133.91
135.95
137.99
135.76
128.57
119.20
111.59
107.81
106.53
103.91
96.12
82.01
63.83
45.96
32.31
24.27
20.51
18.22
15.11
10.66
6.17
3.69
4.64
9.08
15.73
22.72
28.46
32.23
34.28
35.28
35.78
35.70
34.16
30.06
22.64
11.93
-1.26
-15.70
-30.13
-43.70
-55.99
-67.24
-77.84
-88.11
-98.13
-107.79
-116.89
-125.08
-131.83
-136.41
-138.52
-137.97
-134.69
-128.81
-120.63
-110.59
-99.05
-86.18
-72.14
-58.50
-46.91
-38.51
-33.55
-31.51
-31.61
-32.98
-34.91
-37.10
-42.27
-52.95
-70.13
-92.60
-117.97
-144.29
-170.38
-195.76
-220.17
-246.99
-278.03
-311.97
-344.41
-370.60
-388.55
-399.23
-405.60
-410.66
-421.02
-439.56
-464.02
-488.00
-505.49
-514.97
-518.01
-516.71
-479.94
-389.23
-247.71
-82.59
72.41
196.49
286.78
353.40
409.09
461.10
503.25
525.09
520.32
492.52
456.42
422.45
396.29
377.47
361.47
339.79
307.97
267.73
225.72
189.00
160.42
139.41
123.25
109.37
94.81
78.67
62.20
47.96
38.06
32.51
30.31
30.14
31.13
31.72
30.92
28.51
25.16
21.86
19.09
17.25
16.41
16.44
16.71
16.87
17.13
18.23
20.93
25.38
31.49
39.28
49.46
63.20
81.12
101.91
121.48
133.21
129.78
106.13
62.12
3.63
-58.52
-111.57
-144.95
-153.39
-138.51
-108.04
-73.10
-44.71
-30.98
-35.58
-57.62
-92.61
-133.53
-172.46
-202.07
-217.02
-214.99
-197.24
-168.31
-134.77
-103.46
-79.50
-65.45
-61.32
-65.19
-73.62
-82.79
-89.56
-92.07
-90.29
-84.49
-75.41
-64.14
-51.85
-38.67
-24.29
-8.71
7.04
20.91
32.98
44.90
58.87
76.53
98.97
125.05
150.64
169.13
173.26
161.97
139.85
115.01
95.47
87.58
93.47
111.10
136.32
164.83
198.39
240.63
291.99
336.02
351.17
323.82
258.79
184.01
109.57
40.83
-18.95
-67.34
-99.71
-109.65
-92.07
-47.21
16.26
81.14
131.17
154.27
145.44
107.50
50.33
-13.68
-74.75
-129.07
-179.44
-228.53
-277.02
-322.20
-357.92
-375.81
-369.21
-336.56
-283.20
-220.22
-158.56
-106.29
-66.84
-39.35
-20.02
-4.49
10.61
26.84
44.04
61.68
78.27
90.71
94.55
85.10
58.92
15.26
-43.33
-111.19
-180.10
-241.03
-286.10
-310.46
-313.40
-298.54
-272.55
-243.08
-216.54
-196.46
-183.02
-173.76
-164.88
-152.41
-133.45
-106.77
-72.90
-34.04
6.87
47.11
85.06
120.61
155.16
191.00
230.40
274.47
321.99
368.96
409.03
434.99
440.98
424.52
387.40
335.12
275.02
214.12
157.56
108.03
66.30
32.05
4.59
-16.91
-33.42
-46.10
-56.19
-64.78
-72.40
-79.09
-84.31
-87.33
-87.55
-84.79
-79.51
-72.60
-64.96
-57.07
-48.91
-40.18
-30.68
-20.64
-10.80
-2.36
3.56
6.31
6.12
3.75
0.13
-4.07
-8.48
-13.06
-17.94
-23.25
-28.96
-34.44
-39.24
-43.19
-46.03
-47.12
-45.71
-41.46
-34.88
-27.18
-18.46
-8.26
4.59
22.29
47.54
82.01
124.71
171.61
216.65
255.11
282.77
296.34
295.08
281.59
261.17
239.55
221.18
208.45
203.89
207.81
217.31
227.63
232.74
226.21
202.74
160.66
90.79
0.42
-91.46
-167.20
-220.40
-254.83
-275.04
-280.51
-267.30
-234.12
-187.07
-135.56
-91.97
-64.87
-55.86
-61.02
-75.67
-97.46
-126.16
-159.37
-190.61
-211.67
-210.61
-180.83
-127.02
-64.28
-9.40
29.18
55.25
78.20
102.44
125.41
139.47
136.88
111.79
65.64
6.70
-54.24
-108.17
-149.92
-175.83
-182.61
-167.95
-133.18
-85.75
-36.98
0.86
18.74
13.75
-9.53
-41.56
-70.40
-87.59
-99.55
-115.23
-140.25
-172.36
-207.58
-240.24
-264.63
-276.42
-266.98
-235.00
-187.24
-136.06
-92.79
-62.87
-45.28
-36.33
-33.13
-34.92
-42.06
-53.49
-65.10
-71.89
-71.03
-62.89
-50.63
-38.29
-28.65
-22.27
-18.95
-14.80
-5.05
13.64
41.93
76.98
112.62
140.32
151.24
140.53
110.59
70.61
33.13
9.06
3.45
14.28
34.93
58.45
81.62
106.22
136.04
172.87
213.94
252.24
279.57
290.39
284.02
264.58
238.91
213.02
189.99
169.80
151.07
133.36
118.78
111.75
116.83
136.25
167.94
205.73
241.31
266.91
277.25
270.47
248.04
214.12
174.83
136.92
106.03
84.95
72.74
65.01
56.05
41.33
19.19
-8.99
-40.16
-71.69
-102.65
-133.70
-165.45
-196.61
-223.04
-238.71
-237.97
-218.25
-181.75
-135.26
-88.29
-50.25
-28.35
-26.47
-45.27
-82.50
-133.28
-190.62
-246.17
-291.90
-321.84
-333.45
-327.57
-307.48
-277.10
-239.84
-198.30
-154.50
-110.42
-68.30
-30.44
1.27
25.92
43.71
55.92
64.49
71.57
78.94
87.72
98.50
111.70
127.69
146.70
168.31
191.12
213.02
232.12
247.65
260.34
271.96
284.16
297.54
311.04
322.25
328.21
326.31
314.98
294.02
264.72
229.46
191.16
152.40
114.41
76.49
36.25
-9.02
-60.16
-114.14
-163.74
-199.24
-211.75
-196.72
-155.93
-97.33
-32.56
26.39
70.03
92.79
92.72
70.28
27.01
-34.83
-111.61
-197.01
-281.34
-352.26
-397.28
-407.45
-381.15
-326.20
-258.23
-196.09
-155.34
-143.05
-156.07
-183.57
-212.34
-232.29
-239.17
-234.08
-220.71
-202.44
-181.23
-158.36
-135.90
-117.34
-106.32
-104.43
-109.64
-116.78
-119.81
-114.57
-100.57
-80.91
-60.57
-44.29
-35.00
-33.28
-37.63
-45.12
-52.25
-55.89
-53.94
-45.53
-30.59
-9.34
18.08
51.30
88.71
126.88
160.79
185.47
197.86
198.02
188.74
173.81
155.95
135.76
112.24
84.38
52.63
19.30
-12.28
-39.06
-59.17
-71.95
-77.31
-75.05
-64.82
-46.86
-22.72
4.43
30.48
51.63
65.59
72.18
73.08
70.89
68.16
66.77
67.79
71.62
78.21
87.21
98.10
110.31
123.38
136.94
150.71
164.35
177.42
189.56
200.62
210.72
220.07
228.64
236.07
241.77
245.29
246.42
245.00
240.36
230.95
214.68
189.98
157.04
118.50
78.94
43.40
15.58
-3.35
-14.63
-20.79
-24.25
-26.44
-27.80
-28.44
-28.81
-29.91
-32.91
-38.58
-46.95
-57.24
-68.21
-78.61
-87.54
-94.54
-99.64
-103.23
-105.86
-107.99
-109.79
-111.03
-111.23
-110.01
-107.37
-103.84
-100.19
-97.16
-95.16
-93.98
-92.93
-91.31
-88.85
-85.91
-83.26
-81.62
-81.10
-81.07
-80.11
-76.40
-68.26
-54.90
-36.77
-15.41
7.09
28.89
48.51
65.46
80.16
93.54
106.47
119.36
132.24
144.61
155.63
162.68
162.83
153.97
135.87
110.23
80.12
49.32
20.84
-3.33
-25.13
-47.41
-71.98
-98.27
-124.36
-148.59
-169.92
-189.02
-206.55
-226.81
-252.97
-284.86
-318.07
-346.60
-366.08
-374.81
-375.16
-370.80
-370.45
-381.17
-405.48
-440.26
-479.54
-517.41
-548.00
-567.11
-537.20
-435.14
-265.87
-65.44
121.36
264.59
352.30
401.20
427.72
444.42
453.74
454.62
444.93
426.65
403.60
378.57
353.06
325.67
295.91
260.64
218.65
172.23
127.74
91.91
68.63
58.53
58.13
63.42
68.63
69.65
65.33
57.98
51.13
47.49
48.23
52.00
56.95
60.18
59.49
54.24
45.72
36.07
27.31
20.87
17.02
15.52
15.29
15.01
13.67
11.02
7.56
4.12
1.51
-0.15
-1.46
-3.58
-7.83
-15.18
-25.80
-39.01
-53.43
-67.33
-78.88
-86.45
-88.85
-85.61
-77.30
-65.51
-52.63
-41.14
-32.96
-28.80
-28.09
-29.28
-30.67
-31.30
-31.50
-32.87
-37.49
-46.83
-60.76
-77.26
-92.84
-103.85
-107.77
-104.09
-94.40
-81.61
-68.61
-57.36
-48.47
-41.40
-35.15
-28.92
-22.56
-16.95
-14.30
-18.31
-33.87
-65.19
-113.02
-172.55
-233.19
-281.15
-304.09
-295.90
-258.76
-202.31
-138.93
-78.09
-23.37
27.61
80.23
139.47
207.35
282.47
359.79
432.03
491.63
531.48
546.86
536.53
503.25
452.74
392.34
328.09
263.88
202.35
144.73
92.50
46.99
9.01
-25.14
-55.64
-80.83
-101.60
-121.75
-145.54
-173.19
-203.81
-235.20
-264.05
-285.98
-297.18
-295.52
-272.05
-226.75
-169.04
-112.01
-64.26
-28.50
-4.86
6.67
4.18
-13.05
-43.12
-79.49
-112.98
-135.39
-141.76
-132.61
-113.60
-92.81
-76.79
-69.60
-71.25
-78.66
-87.60
-94.70
-98.37
-98.47
-95.61
-90.27
-83.48
-76.03
-68.13
-59.15
-47.84
-32.78
-12.94
11.87
41.05
73.20
107.18
142.55
179.56
218.26
257.43
294.10
323.69
340.86
340.92
321.65
284.61
235.25
181.48
131.07
89.29
57.72
34.68
17.16
2.81
-9.03
-17.56
-21.89
-22.20
-20.07
-17.59
-16.46
-17.10
-18.73
-20.20
-20.85
-21.04
-21.92
-24.73
-29.98
-36.99
-43.96
-48.75
-49.76
-46.74
-40.85
-34.17
-28.82
-26.03
-25.81
-27.06
-28.21
-27.90
-25.49
-21.14
-15.51
-9.41
-3.39
2.34
7.85
13.25
18.43
23.06
26.64
28.63
28.76
27.00
23.57
18.77
12.87
6.09
-1.34
-9.15
-16.98
-24.40
-30.91
-35.77
-38.04
-36.66
-30.62
-19.46
-3.68
14.94
33.57
48.98
58.64
61.50
58.30
51.31
43.29
36.33
31.01
26.31
20.44
12.09
1.13
-11.14
-22.17
-28.71
-27.53
-16.36
5.11
34.28
65.90
92.70
107.64
106.62
90.06
62.52
30.41
-0.78
-28.10
-50.64
-68.93
-83.45
-93.65
-98.05
-95.39
-85.51
-69.80
-50.68
-30.18
-10.55
6.40
20.36
33.34
49.27
72.73
106.84
151.46
203.13
253.89
293.30
312.45
307.27
279.76
236.66
186.69
129.22
68.72
12.41
-33.45
-66.15
-86.07
-94.95
-95.06
-89.24
-80.78
-73.21
-68.88
-69.74
-76.82
-89.84
-107.82
-129.79
-155.35
-179.32
-198.10
-210.45
-217.34
-220.49
-221.28
-220.70
-219.85
-219.80
-220.56
-220.18
-214.49
-198.66
-169.44
-127.42
-77.79
-28.82
11.44
38.43
52.02
55.73
54.06
50.29
45.78
40.67
35.01
29.63
25.91
24.60
25.48
27.33
28.74
28.81
28.04
27.66
28.98
32.76
38.54
45.03
50.86
55.39
58.84
62.05
65.42
68.22
68.64
64.30
53.03
33.35
4.72
-32.23
-74.93
-118.94
-158.03
-185.28
-195.24
-185.93
-159.95
-123.72
-85.14
-50.25
-22.09
-0.61
15.75
28.19
36.74
40.52
38.83
29.51
13.85
-4.61
-20.87
-29.87
-27.68
-12.49
15.48
54.29
100.82
151.49
201.63
245.58
277.42
292.64
290.01
272.61
246.92
220.29
198.05
180.75
164.59
143.72
113.42
72.11
22.15
-31.04
-80.25
-118.44
-140.74
-146.20
-138.19
-122.96
-106.66
-92.58
-79.91
-65.20
-45.24
-19.96
7.06
30.43
45.73
51.47
48.83
40.01
26.67
9.59
-10.45
-31.56
-50.92
-65.58
-73.65
-75.20
-72.22
-67.92
-65.77
-68.46
-76.74
-89.02
-101.39
-109.08
-108.18
-97.38
-78.54
-56.10
-35.24
-20.05
-12.11
-10.03
-9.83
-6.20
5.58
28.15
60.77
99.38
137.80
169.77
190.58
197.85
191.52
173.62
148.38
121.87
100.97
90.92
92.60
101.58
109.39
107.19
89.67
57.58
17.10
-23.05
-55.66
-77.68
-90.75
-99.51
-108.97
-121.99
-138.00
-153.20
-161.66
-157.54
-137.51
-102.24
-56.61
-8.61
32.85
59.96
67.47
53.46
19.61
-28.89
-83.90
-135.85
-175.46
-196.08
-195.54
-176.79
-146.93
-114.69
-87.58
-69.49
-60.26
-56.69
-54.78
-51.62
-46.38
-40.06
-34.39
-30.76
-29.46
-29.66
-29.90
-28.89
-26.00
-21.52
-16.38
-11.72
-8.22
-5.59
-2.43
3.65
15.41
35.00
62.88
96.98
132.57
163.12
182.02
184.54
169.41
139.22
99.54
57.23
18.50
-12.49
-34.04
-46.63
-52.11
-52.82
-51.03
-48.62
-47.01
-47.04
-48.99
-52.55
-56.91
-60.90
-63.24
-62.97
-59.70
-53.72
-45.87
-37.19
-28.51
-20.19
-12.04
-3.51
5.92
16.36
27.39
38.07
47.30
54.20
58.52
60.69
61.77
63.00
65.49
69.80
75.89
83.10
90.36
96.57
100.85
102.83
102.62
100.71
97.60
93.61
88.85
83.50
78.15
73.99
72.77
76.30
85.79
101.43
122.07
145.35
167.96
186.21
196.66
196.89
186.31
166.83
142.86
120.29
104.66
99.21
103.65
114.31
125.71
132.71
132.39
124.55
111.07
94.42
76.47
58.00
39.16
20.26
2.29
-13.19
-24.85
-32.33
-36.48
-39.05
-41.95
-46.40
-52.53
-59.52
-66.16
-71.51
-75.33
-78.04
-80.48
-83.38
-87.06
-91.26
-95.32
-98.43
-100.07
-100.20
-99.29
-98.13
-97.44
-97.56
-98.29
-99.02
-99.09
-98.09
-96.04
-93.39
-90.72
-88.52
-86.92
-85.70
-84.38
-82.34
-78.98
-73.78
-66.40
-56.77
-45.16
-32.21
-18.75
-5.47
7.33
19.95
33.27
48.33
65.81
85.55
106.44
126.76
144.88
159.92
171.78
180.61
186.15
187.30
182.47
170.45
151.29
126.56
98.74
70.13
41.89
13.78
-15.18
-45.69
-77.21
-107.73
-134.37
-154.54
-166.96
-172.24
-172.82
-172.15
-173.59
-179.41
-189.98
-204.09
-219.51
-234.02
-246.11
-255.33
-262.28
-268.39
-275.90
-287.21
-303.62
-323.85
-342.97
-352.59
-342.96
-306.55
-241.78
-154.95
-59.05
30.39
100.65
145.92
168.31
175.45
176.29
177.10
179.78
182.67
182.93
178.95
171.32
162.14
153.43
145.62
137.44
127.04
113.54
98.11
83.66
73.76
70.61
73.63
79.51
83.58
81.95
73.34
59.76
45.60
35.70
33.35
39.10
50.89
65.08
77.67
85.16
85.08
76.18
58.73
34.67
7.45
-18.67
-39.81
-53.77
-60.67
-62.69
-62.95
-64.18
-67.82
-73.81
-81.11
-88.41
-94.73
-99.71
-103.59
-107.02
-110.89
-116.00
-122.81
-131.10
-139.89
-147.55
-152.11
-151.94
-146.15
-135.01
-119.90
-103.06
-87.17
-74.85
-68.21
-68.32
-74.92
-86.19
-99.18
-110.63
-118.11
-121.11
-121.28
-121.67
-125.10
-132.44
-141.47
-147.35
-144.53
-129.55
-103.14
-70.57
-39.60
-17.22
-6.52
-5.36
-7.70
-6.22
4.58
26.53
57.61
93.05
126.38
150.75
160.33
151.97
127.46
94.56
66.02
55.66
72.87
117.65
179.58
241.52
286.97
307.28
304.66
289.65
274.46
266.01
262.83
257.04
240.01
207.65
162.54
111.54
61.06
13.10
-35.72
-91.01
-155.88
-227.26
-295.50
-347.23
-370.62
-359.89
-317.49
-253.36
-181.39
-114.86
-62.99
-29.50
-13.02
-9.29
-13.28
-20.70
-28.54
-34.64
-37.23
-34.70
-25.90
-10.72
9.33
31.13
50.70
64.57
71.12
71.14
67.37
63.25
61.33
62.33
65.10
67.58
68.13
66.51
63.98
62.58
63.83
67.74
72.52
75.30
73.44
65.88
53.58
39.18
25.81
15.87
10.09
7.62
6.47
4.48
0.37
-5.57
-11.13
-12.44
-4.91
15.26
49.14
93.66
141.40
182.03
205.13
203.59
175.90
126.32
63.24
-3.65
-65.91
-117.67
-155.94
-180.16
-191.41
-191.96
-184.90
-173.54
-160.84
-148.68
-137.02
-124.53
-109.19
-88.61
-60.61
-23.78
21.54
72.31
122.43
164.41
190.78
197.24
184.61
158.93
129.21
104.18
89.55
87.03
95.71
111.93
130.65
146.77
156.07
155.92
145.33
124.21
89.37
40.99
-17.13
-76.37
-125.08
-152.73
-154.38
-133.01
-98.05
-62.09
-30.64
-4.41
18.62
39.67
56.57
63.90
56.08
30.73
-10.77
-61.58
-114.08
-162.16
-202.23
-232.01
-249.16
-250.85
-234.90
-201.19
-151.51
-90.20
-22.72
44.78
105.21
150.24
171.48
162.78
123.06
58.29
-20.16
-98.32
-163.34
-206.31
-223.35
-215.21
-186.09
-142.31
-90.95
-39.21
6.63
41.98
64.26
72.47
66.78
48.18
18.66
-18.11
-56.75
-90.43
-112.00
-115.64
-98.48
-61.87
-11.79
42.11
88.91
119.76
131.17
126.83
116.85
114.03
128.70
164.06
214.62
268.44
311.94
335.04
334.14
312.28
276.73
236.04
196.90
162.55
132.69
104.36
73.51
36.41
-8.81
-61.21
-116.37
-167.65
-207.63
-230.18
-232.14
-214.42
-181.98
-141.90
-100.58
-60.43
-19.96
24.57
76.13
134.07
193.05
244.47
280.02
294.81
289.99
270.51
242.47
210.44
176.55
141.28
104.78
68.36
28.23
-15.00
-58.35
-98.59
-134.51
-166.39
-193.69
-215.02
-225.76
-220.95
-197.57
-157.79
-108.27
-59.76
-22.33
-1.83
1.34
-8.68
-26.07
-44.93
-61.64
-74.75
-84.28
-90.29
-92.60
-91.24
-87.31
-84.07
-86.25
-98.51
-122.35
-154.52
-187.02
-210.51
-218.26
-209.71
-190.92
-170.86
-156.61
-148.84
-142.58
-130.35
-106.92
-70.74
-23.92
30.07
88.43
149.09
209.91
265.65
308.57
330.94
330.98
314.15
291.12
273.13
267.57
276.76
296.61
319.21
335.20
339.07
329.32
307.60
277.12
234.26
180.74
122.46
73.45
35.36
4.35
-26.12
-60.48
-100.69
-144.93
-186.05
-215.14
-224.80
-213.83
-186.40
-152.04
-122.90
-110.22
-120.88
-155.27
-209.14
-275.07
-344.39
-405.86
-447.96
-461.69
-443.69
-397.28
-330.84
-255.48
-181.67
-117.56
-66.78
-29.63
-4.50
11.27
21.17
29.01
37.27
45.45
49.54
44.35
26.39
-3.30
-37.78
-65.78
-75.53
-59.83
-19.44
36.62
94.59
140.96
167.18
171.88
159.80
138.51
114.67
91.79
70.35
49.48
28.96
10.20
-4.33
-12.68
-14.61
-11.95
-7.71
-4.51
-3.48
-4.06
-4.63
-3.84
-1.45
1.74
4.71
7.25
10.57
16.94
28.55
46.33
69.28
94.79
119.75
141.69
159.51
173.44
184.45
193.35
200.47
205.70
209.15
211.66
214.74
220.11
228.65
239.64
250.75
258.74
260.53
254.06
238.58
214.40
182.69
145.40
105.45
66.64
33.05
7.86
-7.83
-15.39
-18.02
-19.39
-22.15
-27.27
-34.18
-41.59
-48.41
-54.28
-59.40
-64.17
-68.77
-72.94
-76.24
-78.36
-79.49
-80.34
-81.83
-84.70
-89.02
-94.19
-99.24
-103.45
-106.78
-109.96
-114.06
-119.88
-127.58
-136.37
-144.92
-151.86
-156.42
-158.77
-159.95
-161.47
-164.69
-170.31
-177.71
-184.56
-186.88
-179.90
-159.59
-124.40
-76.30
-20.58
35.36
84.66
123.02
149.62
166.58
177.61
186.47
196.01
207.55
220.00
230.85
236.73
234.44
221.83
198.45
165.73
126.52
84.26
40.39
-4.04
-48.07
-90.21
-128.50
-161.23
-187.60
-207.79
-222.73
-236.42
-252.30
-272.36
-296.18
-321.00
-342.97
-358.63
-366.05
-365.49
-362.63
-362.99
-369.81
-382.30
-396.76
-409.24
-417.44
-420.51
-395.30
-324.31
-200.19
-34.43
144.83
304.95
421.40
484.67
501.50
489.72
462.69
429.08
392.37
353.24
312.25
271.08
234.19
204.61
182.97
164.12
141.64
109.98
67.28
16.24
-36.92
-84.26
-118.83
-136.15
-137.15
-125.83
-107.75
-87.70
-68.19
-49.38
-30.32
-10.94
6.88
18.52
19.30
6.93
-16.68
-45.37
-70.85
-85.70
-86.11
-72.68
-49.89
-23.54
1.55
22.81
40.16
54.98
69.01
83.37
98.33
113.40
127.58
139.53
147.71
150.73
148.00
140.51
131.11
123.94
122.74
128.73
139.32
148.28
147.75
131.23
96.17
45.21
-14.55
-73.70
-123.28
-157.09
-172.92
-172.62
-160.99
-144.21
-128.01
-116.38
-111.04
-111.63
-116.42
-123.03
-128.82
-131.18
-127.93
-118.09
-102.53
-84.31
-67.97
-58.14
-57.85
-67.37
-84.17
-104.01
-122.55
-136.92
-146.56
-153.06
-159.32
-168.23
-181.54
-199.09
-218.70
-236.66
-248.94
-252.52
-246.64
-233.31
-216.81
-202.14
-192.97
-190.10
-191.15
-191.73
-187.57
-176.46
-159.17
-138.62
-118.17
-100.01
-84.26
-69.41
-53.48
-35.13
-13.94
9.77
35.48
62.63
90.66
119.10
147.73
177.21
209.41
247.24
293.52
349.19
411.50
473.41
525.00
556.61
562.47
542.78
503.15
451.72
395.39
337.53
278.23
216.78
154.48
95.88
47.49
14.59
-1.64
-4.91
-2.11
-0.13
-2.93
-10.44
-19.51
-26.24
-28.36
-26.36
-23.09
-22.05
-25.38
-32.71
-41.34
-47.73
-49.31
-45.79
-39.14
-32.46
-28.40
-27.97
-30.30
-33.48
-35.67
-36.10
-35.24
-34.39
-34.81
-37.17
-41.29
-46.44
-51.72
-56.38
-59.92
-62.00
-62.32
-60.56
-56.48
-49.98
-41.29
-30.91
-19.51
-7.78
3.84
15.26
26.79
38.80
51.41
64.18
76.09
85.94
92.85
96.64
97.77
96.94
94.58
90.50
84.08
74.60
61.81
46.12
28.60
10.57
-6.77
-22.68
-36.98
-50.00
-62.30
-74.14
-85.40
-95.47
-103.30
-107.66
-107.60
-102.61
-92.79
-78.89
-61.78
-42.46
-22.07
-1.89
16.64
31.85
42.18
46.38
43.76
34.80
20.66
2.81
-17.13
-37.37
-56.10
-71.27
-81.33
-85.96
-85.10
-80.23
-73.73
-67.49
-61.71
-55.19
-45.07
-29.37
-8.61
16.83
44.75
72.23
97.05
118.75
137.32
155.18
174.74
197.72
229.45
272.86
326.72
385.49
441.36
485.45
515.36
533.90
547.30
567.68
602.27
649.01
697.34
733.58
745.37
732.37
702.59
633.53
518.73
365.47
191.88
18.25
-124.06
-236.45
-322.16
-383.76
-425.88
-451.88
-465.97
-473.78
-479.68
-484.18
-486.75
-482.50
-469.14
-449.55
-426.30
-403.78
-387.06
-380.05
-384.49
-401.80
-428.70
-460.02
-489.43
-506.99
-503.86
-475.53
-423.47
-354.74
-280.88
-212.00
-155.91
-117.06
-94.80
-85.51
-84.06
-84.91
-83.10
-75.93
-62.19
-43.07
-21.54
0.01
20.30
39.35
57.91
76.32
93.64
108.19
117.92
121.02
116.66
105.25
88.13
67.34
45.16
23.77
4.88
-10.50
-21.89
-29.09
-31.98
-30.65
-25.81
-18.75
-11.21
-4.42
1.83
9.47
21.73
41.81
71.20
108.50
149.46
188.36
220.27
242.96
257.67
268.07
278.02
289.02
298.95
302.91
295.74
274.89
241.91
201.75
160.47
122.53
89.45
60.22
32.97
6.53
-19.00
-43.13
-66.43
-91.03
-120.13
-155.99
-197.81
-240.84
-277.43
-299.37
-300.59
-278.80
-235.77
-176.77
-109.61
-43.95
9.70
41.86
47.05
26.22
-12.60
-56.70
-93.27
-114.26
-119.02
-113.34
-105.66
-102.51
-105.62
-111.81
-115.28
-110.95
-96.90
-75.14
-50.47
-28.43
-12.74
-3.84
1.35
8.41
23.54
51.73
95.14
152.14
216.93
280.41
332.07
363.07
369.24
352.77
321.65
286.62
257.13
237.77
227.38
220.65
211.33
195.10
170.71
139.53
103.75
64.92
23.46
-21.15
-69.91
-123.76
-182.73
-245.33
-307.67
-363.53
-405.69
-427.98
-427.26
-404.49
-364.24
-313.37
-259.42
-209.14
-167.45
-136.53
-115.52
-100.92
-87.95
-72.68
-53.62
-32.29
-12.04
3.97
14.43
20.13
22.56
22.63
19.90
13.29
2.40
-11.38
-25.03
-34.86
-37.83
-32.46
-18.96
1.31
26.36
53.99
82.07
108.45
131.19
148.72
159.96
164.32
161.52
151.56
134.91
112.87
87.92
63.44
42.92
28.60
20.68
17.14
14.98
11.81
7.14
2.71
1.62
6.68
18.96
37.16
58.05
77.68
92.74
101.57
104.37
102.76
98.77
94.05
89.43
85.13
81.29
78.55
77.99
80.67
86.89
95.71
105.19
113.01
117.26
116.87
111.60
101.83
88.48
73.05
57.59
44.40
35.24
30.54
29.16
28.84
27.28
23.17
16.55
8.43
-0.04
-8.24
-16.10
-23.74
-30.98
-37.24
-41.83
-44.45
-45.45
-45.80
-46.55
-48.38
-51.35
-54.96
-58.57
-61.67
-64.12
-66.09
-67.95
-69.99
-72.07
-73.98
-75.45
-76.17
-75.95
-74.88
-73.40
-72.39
-72.65
-74.38
-77.20
-80.20
-82.18
-82.19
-79.84
-75.34
-69.36
-62.29
-53.64
-42.96
-30.44
-17.00
-4.27
5.85
11.97
13.03
9.39
3.53
-2.52
-8.11
-13.38
-19.15
-26.46
-36.17
-49.79
-67.00
-83.21
-94.15
-97.59
-93.30
-83.81
-74.02
-69.28
-75.51
-94.23
-119.06
-143.66
-164.83
-181.34
-193.54
-202.22
-207.66
-212.86
-220.09
-226.32
-230.24
-230.95
-223.75
-201.61
-159.38
-79.25
36.76
143.66
216.98
255.45
262.61
248.06
222.72
194.51
166.96
137.59
104.85
74.56
51.43
36.62
29.64
28.22
29.30
30.57
29.04
24.13
20.77
21.68
25.76
30.38
32.07
27.77
16.17
-2.99
-27.06
-49.18
-63.81
-68.62
-63.60
-50.81
-33.46
-14.65
2.80
17.74
31.59
45.62
59.90
73.57
84.68
90.71
89.55
80.13
63.38
42.57
21.73
4.47
-6.80
-11.37
-10.26
-5.64
-0.31
2.99
2.00
-4.69
-17.42
-35.40
-57.00
-80.16
-102.83
-123.25
-139.92
-151.61
-157.43
-157.13
-151.58
-142.86
-133.79
-126.95
-123.57
-122.85
-122.29
-118.77
-109.94
-95.26
-76.21
-55.79
-37.62
-25.26
-21.53
-28.01
-44.34
-67.69
-92.75
-112.76
-121.68
-116.58
-99.11
-74.93
-51.32
-33.82
-24.01
-19.31
-14.71
-5.31
11.93
38.29
74.23
120.15
176.39
241.73
311.78
378.77
433.08
465.89
472.07
451.92
411.37
360.69
311.62
273.92
252.17
243.99
240.96
231.97
207.77
164.51
104.54
34.20
-39.75
-112.62
-182.33
-247.25
-303.95
-346.44
-367.60
-362.04
-328.66
-271.27
-197.57
-117.75
-42.23
19.71
61.42
80.30
78.56
62.89
42.83
28.24
26.61
41.22
70.58
109.02
148.36
179.71
195.31
190.18
163.37
118.66
64.24
10.98
-30.25
-51.40
-49.26
-25.94
12.63
58.92
105.87
147.56
178.70
194.20
190.30
166.91
129.92
90.56
61.15
49.03
51.90
58.08
51.90
21.55
-35.11
-110.03
-189.49
-260.53
-315.41
-352.21
-372.43
-378.03
-370.42
-351.39
-324.77
-296.83
-274.88
-264.58
-267.29
-279.57
-294.49
-304.78
-305.83
-297.14
-281.79
-264.23
-247.53
-231.37
-212.20
-185.12
-146.59
-96.93
-41.00
12.96
56.16
82.65
91.93
89.06
82.63
81.23
90.16
109.71
135.77
162.51
185.26
203.25
218.52
234.19
252.61
274.86
301.64
333.65
370.97
411.30
450.24
480.48
494.89
491.00
473.87
454.94
446.32
453.96
473.93
496.42
508.96
502.02
472.38
423.04
360.06
289.45
215.78
143.81
83.36
44.93
35.25
53.15
88.54
125.91
149.96
150.99
111.59
31.21
-75.92
-186.53
-280.18
-347.83
-391.67
-419.46
-438.80
-457.93
-478.46
-499.19
-517.63
-530.72
-535.23
-528.51
-506.56
-469.69
-422.21
-368.16
-311.90
-256.89
-205.18
-157.48
-113.76
-74.00
-39.41
-11.67
9.35
24.22
33.66
38.66
41.02
43.22
46.82
50.46
49.84
40.50
19.87
-10.58
-45.52
-77.95
-102.45
-117.11
-123.17
-122.19
-113.37
-93.52
-59.74
-12.84
41.38
93.82
135.58
161.06
169.03
161.74
143.15
118.42
93.80
76.57
73.61
89.05
122.10
166.61
213.14
252.41
278.57
290.55
290.96
283.60
271.33
255.34
235.93
213.69
190.14
167.21
146.14
126.60
106.13
81.42
49.60
9.46
-37.64
-87.83
-135.86
-176.69
-207.02
-226.13
-235.61
-237.59
-232.99
-220.66
-198.30
-165.00
-123.69
-81.79
-48.78
-32.15
-33.81
-49.31
-70.29
-88.81
-100.67
-106.26
-108.76
-111.28
-114.77
-117.96
-118.61
-115.29
-108.63
-100.93
-94.91
-92.23
-92.40
-92.63
-88.91
-77.44
-56.05
-24.96
13.70
57.02
102.31
147.21
189.32
225.71
253.30
269.84
275.15
271.57
262.99
253.17
243.59
233.05
218.59
197.28
167.80
130.79
88.02
41.72
-5.47
-50.06
-86.98
-110.53
-116.47
-104.33
-78.18
-45.55
-14.84
7.61
19.19
21.06
16.78
10.49
5.53
3.19
2.26
-1.03
-11.90
-35.10
-72.08
-119.33
-168.70
-209.92
-234.76
-239.93
-227.44
-202.28
-169.30
-131.21
-89.06
-44.13
0.34
38.88
65.67
77.05
73.30
58.50
38.78
20.22
7.12
1.43
2.98
10.03
19.83
29.05
34.21
32.00
19.49
-5.29
-42.34
-88.52
-136.82
-177.24
-199.57
-197.26
-170.47
-126.62
-77.76
-35.91
-8.86
1.78
-0.46
-9.67
-20.46
-29.41
-35.04
-36.96
-34.84
-28.38
-17.48
-2.37
16.39
38.22
62.73
89.64
118.56
148.72
178.97
208.09
234.99
258.83
279.03
295.20
307.16
314.88
318.36
317.13
309.79
294.03
267.48
229.35
181.95
130.99
84.22
48.67
28.05
21.49
24.46
31.29
37.76
42.42
46.02
49.86
54.18
57.79
58.86
56.36
50.86
44.24
38.40
33.92
29.52
22.66
10.94
-6.45
-28.12
-51.01
-71.76
-88.11
-99.77
-108.21
-115.92
-125.27
-137.67
-153.20
-170.59
-187.65
-201.79
-210.77
-213.55
-210.48
-203.11
-193.63
-184.06
-175.59
-168.41
-161.95
-155.39
-148.38
-141.03
-133.54
-125.81
-117.32
-107.22
-94.88
-80.00
-62.76
-44.09
-24.94
-5.73
13.70
33.78
54.73
75.87
95.92
113.33
125.55
130.93
129.51
122.97
113.33
102.09
88.67
71.68
49.98
21.09
-15.21
-55.77
-94.83
-126.69
-147.66
-159.17
-165.16
-170.21
-181.73
-204.23
-236.97
-274.56
-310.42
-339.17
-360.95
-377.59
-391.13
-408.30
-434.69
-471.58
-514.86
-556.42
-585.01
-592.53
-572.87
-494.35
-348.20
-155.57
39.67
196.85
289.89
336.85
360.21
375.31
387.99
395.28
391.46
375.49
352.66
330.50
314.86
303.08
289.19
267.75
232.97
184.18
127.33
72.87
30.63
6.75
-0.67
3.17
12.99
22.80
29.28
32.93
36.73
43.51
54.05
64.66
70.58
68.83
58.63
42.86
27.48
18.99
21.51
34.41
51.37
64.08
66.60
57.91
42.50
28.21
22.16
28.18
44.96
66.85
87.06
101.07
107.86
108.63
105.33
98.75
90.60
83.54
81.10
86.51
101.30
123.65
147.77
166.91
170.02
152.25
118.41
79.76
44.97
15.63
-12.66
-41.97
-66.99
-80.29
-73.53
-44.40
-0.26
43.51
69.92
67.94
35.80
-16.36
-75.54
-129.93
-174.37
-211.20
-247.07
-287.54
-324.86
-363.07
-391.55
-402.18
-390.63
-358.47
-312.08
-259.77
-208.18
-159.91
-115.05
-69.91
-23.43
23.27
67.16
105.16
136.19
161.99
186.01
210.05
234.68
255.41
265.19
256.98
226.58
174.27
104.96
26.97
-50.46
-117.29
-166.22
-193.40
-199.18
-187.99
-166.86
-143.21
-122.39
-106.54
-93.92
-81.60
-67.38
-51.01
-33.64
-16.21
1.72
21.94
46.14
74.48
104.44
131.44
150.49
158.21
154.44
141.62
123.47
103.40
83.46
64.28
45.58
26.94
8.40
-8.40
-21.43
-29.07
-30.62
-26.17
-16.36
-2.51
13.09
27.37
39.37
49.16
57.72
66.55
77.24
91.34
109.55
131.24
154.89
181.96
213.30
246.92
276.68
293.87
291.79
269.76
234.40
197.94
178.16
188.38
232.19
302.73
386.90
471.84
547.87
608.16
620.75
564.28
437.62
265.84
88.48
-59.84
-160.72
-213.75
-231.57
-232.49
-229.37
-229.22
-233.40
-238.46
-241.21
-237.25
-222.36
-194.94
-157.75
-115.13
-74.20
-42.68
-26.93
-30.42
-52.33
-89.55
-138.86
-195.52
-252.10
-300.97
-336.10
-354.92
-358.50
-349.85
-332.38
-308.46
-279.18
-244.53
-205.74
-166.40
-131.57
-105.41
-88.23
-76.25
-63.87
-47.29
-26.73
-6.61
7.29
11.45
6.75
-2.02
-9.15
-11.26
-8.96
-5.82
-6.08
-11.93
-22.12
-32.62
-38.97
-38.75
-32.80
-24.62
-17.64
-14.90
-18.19
-27.88
-43.15
-62.36
-83.29
-103.34
-119.36
-126.40
-120.53
-100.00
-65.59
-20.03
32.99
90.13
149.32
210.41
276.03
346.84
419.12
484.58
532.97
555.80
550.01
518.99
458.18
372.71
274.41
177.80
93.73
26.38
-25.30
-63.18
-92.13
-115.89
-135.60
-152.80
-169.39
-186.91
-203.15
-214.99
-219.71
-216.88
-208.46
-196.82
-185.23
-176.42
-171.51
-169.65
-169.01
-167.70
-164.89
-160.38
-153.49
-144.03
-132.60
-120.80
-110.93
-105.19
-104.60
-108.02
-111.87
-110.71
-99.75
-76.58
-42.01
0.71
47.27
94.09
139.28
182.89
226.28
270.81
316.74
362.42
404.16
436.68
454.45
453.42
432.47
393.86
342.33
283.41
221.69
160.02
99.84
42.41
-10.57
-56.90
-95.19
-126.19
-153.26
-181.12
-213.78
-252.33
-294.07
-333.35
-363.41
-378.43
-374.92
-352.47
-314.07
-266.09
-217.40
-177.47
-153.52
-147.70
-155.89
-168.78
-175.21
-166.27
-138.34
-93.66
-38.58
19.15
72.73
117.43
150.44
170.53
177.23
171.04
153.58
127.82
98.20
70.27
49.60
40.45
44.60
60.79
85.02
111.63
134.56
148.55
149.75
135.92
106.53
63.36
11.16
-42.39
-88.18
-118.40
-129.46
-123.30
-106.19
-85.55
-66.70
-51.29
-38.36
-26.94
-18.12
-15.16
-21.74
-39.32
-65.75
-96.08
-124.69
-147.42
-162.74
-171.42
-175.67
-178.02
-180.30
-182.75
-183.70
-179.68
-166.51
-140.98
-102.58
-54.08
-0.85
51.07
96.80
133.78
161.73
181.63
194.72
201.98
204.28
202.87
199.72
197.30
197.56
201.25
207.13
212.28
212.81
205.33
188.27
162.82
132.84
103.92
81.67
69.81
69.01
76.67
88.06
98.18
103.51
102.91
97.32
88.68
78.60
67.84
56.36
43.99
31.07
18.51
7.39
-1.54
-8.23
-13.46
-18.43
-24.14
-31.04
-38.85
-46.73
-53.61
-58.66
-61.53
-62.47
-62.18
-61.63
-61.54
-62.06
-62.67
-62.45
-60.52
-56.53
-50.81
-44.18
-37.64
-31.72
-26.26
-20.53
-13.71
-5.34
4.45
15.08
25.72
35.24
42.74
47.91
51.18
53.52
56.01
59.34
63.29
66.43
65.61
57.75
41.28
17.03
-12.35
-43.37
-72.72
-97.89
-117.58
-133.01
-145.26
-153.90
-156.96
-152.66
-141.43
-126.37
-112.30
-104.34
-108.44
-126.67
-155.97
-189.02
-217.85
-237.29
-245.96
-245.60
-240.73
-240.84
-254.51
-285.35
-329.36
-375.97
-411.36
-422.18
-399.89
-324.23
-196.31
-41.54
100.35
198.58
246.51
257.79
251.54
243.30
239.24
236.10
229.72
219.46
208.65
201.99
199.67
198.27
193.25
181.50
160.50
131.58
99.86
72.51
54.97
48.42
50.14
55.67
60.66
60.96
55.13
44.66
32.95
23.14
16.55
12.55
9.63
6.25
0.75
-7.24
-17.19
-28.04
-38.91
-49.32
-59.20
-68.25
-75.87
-81.36
-83.28
-80.41
-72.05
-58.00
-38.09
-12.45
18.94
55.51
95.85
138.15
179.34
215.38
241.68
254.55
251.59
233.47
203.90
165.86
129.05
106.58
107.80
128.79
158.71
184.10
194.28
183.53
152.79
108.95
61.20
18.49
-10.97
-23.12
-26.15
-27.19
-30.95
-37.45
-47.35
-62.00
-82.86
-110.72
-144.37
-181.20
-216.82
-247.55
-271.67
-289.82
-304.61
-319.78
-338.42
-360.80
-383.43
-398.73
-398.61
-377.83
-336.41
-279.51
-215.27
-151.57
-93.14
-40.79
7.91
55.46
102.14
145.20
179.95
201.65
207.17
196.03
170.23
133.50
89.31
39.35
-16.21
-77.05
-140.54
-200.60
-248.76
-277.08
-281.54
-264.10
-232.01
-194.62
-159.48
-130.17
-106.37
-85.67
-65.92
-46.58
-28.54
-13.10
-0.81
8.84
17.27
26.13
36.84
50.24
66.48
85.35
106.77
131.49
160.98
196.49
237.37
279.71
316.27
338.54
340.04
319.22
280.65
233.47
188.06
152.55
130.85
122.57
124.64
133.30
145.24
157.78
168.44
174.70
174.35
166.06
150.02
127.89
102.44
76.66
52.87
32.29
14.99
0.20
-13.16
-25.92
-38.32
-49.93
-59.83
-67.06
-71.06
-71.99
-70.76
-68.70
-67.11
-66.91
-68.45
-71.58
-75.83
-80.27
-83.48
-83.52
-78.23
-65.88
-45.93
-19.55
10.35
39.79
64.79
82.41
91.36
92.01
85.88
75.01
61.48
47.38
34.89
26.25
23.39
27.19
36.87
49.83
62.31
70.63
72.42
67.34
56.84
43.31
28.95
15.13
2.23
-9.98
-21.82
-33.31
-44.12
-53.67
-61.26
-66.28
-68.26
-66.94
-62.30
-54.57
-44.20
-31.86
-18.37
-4.70
8.15
19.21
27.67
33.05
35.26
34.55
31.44
26.56
20.51
13.72
6.50
-0.94
-8.38
-15.55
-22.09
-27.63
-31.95
-34.99
-36.91
-38.10
-38.99
-39.99
-41.39
-43.33
-45.82
-48.66
-51.47
-53.62
-54.32
-52.86
-48.77
-42.03
-33.04
-22.50
-11.19
0.17
10.97
20.64
28.62
34.40
37.69
38.55
37.47
35.28
32.91
31.13
30.26
30.06
29.83
28.71
26.06
21.75
16.31
10.68
5.78
2.12
-0.47
-2.67
-5.34
-9.12
-14.18
-20.20
-26.59
-32.65
-37.73
-41.28
-42.98
-42.89
-41.55
-39.84
-38.71
-38.79
-40.01
-41.73
-43.02
-43.15
-41.94
-39.77
-37.31
-35.08
-33.18
-31.26
-28.80
-25.35
-20.81
-15.40
-9.50
-3.61
1.78
6.09
8.68
8.89
6.32
1.08
-6.08
-13.86
-20.96
-26.62
-30.93
-34.83
-39.44
-45.35
-52.11
-58.15
-61.42
-60.45
-55.10
-46.95
-38.80
-33.70
-33.81
-39.88
-51.19
-65.71
-80.65
-92.72
-98.43
-94.76
-80.45
-57.41
-31.22
-9.58
1.12
-0.51
-9.16
-14.74
-7.32
17.47
55.83
97.44
130.77
148.69
151.32
144.65
136.39
131.73
131.56
133.72
135.85
137.24
138.47
139.30
137.53
129.53
112.80
88.86
64.49
49.87
55.02
85.99
142.33
216.87
297.56
370.95
425.62
454.75
457.04
435.94
397.66
348.20
291.69
230.17
165.01
98.55
34.44
-23.44
-72.76
-113.11
-146.12
-173.70
-196.09
-211.44
-216.64
-209.81
-191.99
-167.37
-140.77
-116.74
-97.73
-83.21
-69.64
-51.34
-23.47
15.34
60.96
105.86
140.48
156.03
147.92
117.77
72.99
22.99
-24.59
-72.07
-119.16
-163.29
-201.23
-229.77
-251.14
-269.29
-289.18
-314.33
-346.66
-383.33
-417.93
-444.46
-459.36
-461.85
-452.99
-435.25
-406.34
-367.76
-328.84
-292.77
-258.87
-227.50
-198.56
-170.74
-142.51
-112.71
-81.59
-48.71
-12.45
27.57
69.55
110.34
146.50
175.12
195.30
208.16
217.44
228.46
244.88
268.01
297.55
331.93
368.13
401.41
424.79
